normalizedCapacity,voltage
0.0,1.4973184
0.00010001000100010001,1.1406915121755148
0.00020002000200020003,1.0545592602398914
0.00030003000300030005,0.9948417152893696
0.00040004000400040005,0.9493433292777264
0.0005000500050005,0.9131832375665262
0.0006000600060006001,0.8839287486879333
0.0007000700070007,0.8598772618166283
0.0008000800080008001,0.8399966541179021
0.0009000900090009,0.8231501945055765
0.001000100010001,0.8086497183118793
0.0011001100110011,0.7960342634402691
0.0012001200120012002,0.7848260241130384
0.0013001300130013002,0.7747809477202166
0.0014001400140014,0.7657467872505841
0.0015001500150015,0.7573640336713882
0.0016001600160016002,0.7496295216083129
0.0017001700170017002,0.7425964230362627
0.0018001800180018,0.7359252476932472
0.0019001900190019003,0.7296643484793693
0.002000200020002,0.7239670268278245
0.0021002100210021,0.7182740351040777
0.0022002200220022,0.7129611464345696
0.0023002300230023,0.7080078088151819
0.0024002400240024004,0.7032304183756717
0.0025002500250025004,0.6986905722271548
0.0026002600260026003,0.6941610257499332
0.0027002700270027003,0.6898955288549672
0.0028002800280028,0.6858521378049881
0.0029002900290029,0.6818941185061381
0.003000300030003,0.6780945150054966
0.0031003100310031005,0.6743295592339013
0.0032003200320032004,0.6708036512642742
0.0033003300330033004,0.6673841678969279
0.0034003400340034003,0.6638762692804351
0.0035003500350035003,0.6606311663991022
0.0036003600360036,0.65739667
0.0037003700370037006,0.6541708250588182
0.0038003800380038005,0.6511310864162391
0.0039003900390039005,0.6480877225820806
0.004000400040004,0.6452623771519352
0.004100410041004101,0.6421577583004892
0.0042004200420042,0.6394340920870015
0.004300430043004301,0.6368246189278225
0.0044004400440044,0.6341481223386822
0.004500450045004501,0.6314875624231997
0.0046004600460046,0.6288321842764416
0.0047004700470047005,0.6263810534533085
0.004800480048004801,0.6238965165536148
0.0049004900490049,0.6214567800749882
0.005000500050005001,0.6191359465338104
0.0051005100510051,0.616736486759253
0.005200520052005201,0.6143992142052335
0.0053005300530053,0.6116999287520458
0.0054005400540054005,0.6096573859888821
0.005500550055005501,0.6075107555621981
0.0056005600560056,0.6053863175180565
0.005700570057005701,0.6032234771711161
0.0058005800580058,0.6012333519820934
0.005900590059005901,0.5992065487811913
0.006000600060006,0.5971383988331719
0.006100610061006101,0.595188771724283
0.006200620062006201,0.5931762596081706
0.0063006300630063005,0.5913656948972641
0.006400640064006401,0.5893680768839602
0.0065006500650065,0.5873645237180131
0.006600660066006601,0.5855994432277656
0.0067006700670067,0.5837784091652347
0.006800680068006801,0.5818511180002673
0.006900690069006901,0.5801347057762378
0.0070007000700070005,0.5784169130715088
0.007100710071007101,0.5766636355432898
0.0072007200720072,0.5749396034248335
0.007300730073007301,0.5733265681913958
0.007400740074007401,0.5716151739721602
0.007500750075007501,0.5700295293715955
0.007600760076007601,0.56838787
0.007700770077007701,0.5667386615213529
0.007800780078007801,0.5650872895067915
0.0079007900790079,0.5635908693117451
0.008000800080008,0.5619749334127215
0.008100810081008101,0.56042463
0.008200820082008202,0.5588891739462142
0.0083008300830083,0.5574322438577566
0.0084008400840084,0.555901991298057
0.008500850085008501,0.5544883644462525
0.008600860086008601,0.5529769302298108
0.0087008700870087,0.5516092137332976
0.0088008800880088,0.5500969272211507
0.0089008900890089,0.5487624295384719
0.009000900090009001,0.547336947668416
0.009100910091009102,0.5459505271768679
0.0092009200920092,0.5445778601694701
0.0093009300930093,0.5432688710273024
0.009400940094009401,0.5419457708811873
0.009500950095009501,0.5404883302725725
0.009600960096009602,0.5393221146496541
0.0097009700970097,0.5378948783681534
0.0098009800980098,0.536812643552182
0.009900990099009901,0.5355039740470096
0.010001000100010001,0.534147266103268
0.010101010101010102,0.53298295
0.0102010201020102,0.5317033177958792
0.010301030103010301,0.5305320206805474
0.010401040104010401,0.52927822
0.010501050105010502,0.5281212964604857
0.0106010601060106,0.52683383
0.0107010701070107,0.5257029803478602
0.010801080108010801,0.5244868739954076
0.010901090109010901,0.5233411209089233
0.011001100110011002,0.5221909597214331
0.0111011101110111,0.5211230358811989
0.0112011201120112,0.5199692391377354
0.011301130113011301,0.5188555379143417
0.011401140114011402,0.5176841751674429
0.011501150115011502,0.516613875416594
0.0116011601160116,0.5155240244438195
0.011701170117011701,0.51432562
0.011801180118011801,0.513390632060341
0.011901190119011902,0.5122417940633521
0.012001200120012,0.51123202
0.0121012101210121,0.5100727841869667
0.012201220122012201,0.509040315000514
0.012301230123012302,0.5080275727714281
0.012401240124012402,0.5070375402622166
0.0125012501250125,0.5060944074387936
0.012601260126012601,0.5050915043857833
0.012701270127012701,0.5040264311124709
0.012801280128012802,0.5029657654735147
0.012901290129012902,0.5020001755360131
0.013001300130013,0.5011498489213724
0.013101310131013101,0.5000989001151173
0.013201320132013201,0.4992171399621599
0.013301330133013302,0.4981855844865226
0.0134013401340134,0.497166938340807
0.013501350135013501,0.4962230318774864
0.013601360136013601,0.4953852096417895
0.013701370137013702,0.4944809096416462
0.013801380138013802,0.4936035802742219
0.0139013901390139,0.4925466715878367
0.014001400140014001,0.491650933561761
0.014101410141014101,0.49079871
0.014201420142014202,0.48995832524928995
0.014301430143014302,0.4890142806073438
0.0144014401440144,0.48806792
0.014501450145014501,0.48734100342245
0.014601460146014602,0.4863057711503578
0.014701470147014702,0.4854144406526602
0.014801480148014802,0.4846806065182422
0.014901490149014901,0.483826752691902
0.015001500150015001,0.48304555
0.015101510151015102,0.48222438
0.015201520152015202,0.4811802615745355
0.0153015301530153,0.4804582634888022
0.015401540154015401,0.47957029470842477
0.015501550155015502,0.4788699160688716
0.015601560156015602,0.4780514494142307
0.0157015701570157,0.4773022325316166
0.0158015801580158,0.47631043550407426
0.0159015901590159,0.47556114848146663
0.016001600160016,0.47486814390226406
0.016101610161016102,0.47407019
0.016201620162016202,0.4732607595845741
0.016301630163016303,0.4724761967037384
0.016401640164016403,0.47168372853921575
0.0165016501650165,0.4709155028878329
0.0166016601660166,0.47010155557316236
0.0167016701670167,0.4694723218652505
0.0168016801680168,0.4687440266498253
0.0169016901690169,0.46807010146397665
0.017001700170017002,0.4672101676713582
0.017101710171017102,0.46641445250675473
0.017201720172017203,0.4657447301584502
0.017301730173017303,0.46489845328182516
0.0174017401740174,0.46427331483945383
0.0175017501750175,0.463538834106497
0.0176017601760176,0.4629178
0.0177017701770177,0.46214162609447856
0.0178017801780178,0.461467845679825
0.017901790179017902,0.4608351996695502
0.018001800180018002,0.46003663001354994
0.018101810181018103,0.459317234791168
0.018201820182018203,0.45869066207935955
0.018301830183018303,0.45792316666382776
0.0184018401840184,0.45730572165547334
0.0185018501850185,0.45669821490659895
0.0186018601860186,0.45600489
0.0187018701870187,0.4553783008433285
0.018801880188018802,0.45455354
0.018901890189018902,0.45384698037007576
0.019001900190019003,0.45327736176138966
0.019101910191019103,0.4526122706285879
0.019201920192019203,0.4520868530833874
0.0193019301930193,0.4513892640251191
0.0194019401940194,0.45082909255849524
0.0195019501950195,0.45006124319855384
0.0196019601960196,0.44958255805248376
0.019701970197019702,0.44883140189195075
0.019801980198019802,0.44811805502957025
0.019901990199019903,0.44750877980817205
0.020002000200020003,0.4469417366649073
0.020102010201020103,0.44629771819674385
0.020202020202020204,0.4456732885044749
0.0203020302030203,0.4450710193379387
0.0204020402040204,0.4445083331455083
0.0205020502050205,0.443842301150256
0.020602060206020602,0.44330495249253526
0.020702070207020702,0.4427134187235104
0.020802080208020803,0.44199534985177324
0.020902090209020903,0.44147244
0.021002100210021003,0.4408198324771411
0.021102110211021104,0.44029942195583227
0.0212021202120212,0.4397357314423325
0.0213021302130213,0.43919026999417865
0.0214021402140214,0.43861733752250387
0.0215021502150215,0.43788300134942354
0.021602160216021602,0.4374025757445176
0.021702170217021702,0.43671748319501774
0.021802180218021803,0.43624750937309287
0.021902190219021903,0.43560634711110263
0.022002200220022004,0.435110901440817
0.0221022102210221,0.4345626604956566
0.0222022202220222,0.4340247356238595
0.0223022302230223,0.4334857525681495
0.0224022402240224,0.4328666556777284
0.022502250225022502,0.43228912737076736
0.022602260226022602,0.4318301894991065
0.022702270227022703,0.4312373670676278
0.022802280228022803,0.4306954921248904
0.022902290229022904,0.4300969322781714
0.023002300230023004,0.4296631084977813
0.0231023102310231,0.4291119735881744
0.0232023202320232,0.42862948301586123
0.0233023302330233,0.42813167074834285
0.023402340234023402,0.4274930620030942
0.023502350235023502,0.42703564129427524
0.023602360236023603,0.42657852312947037
0.023702370237023703,0.42596971487485347
0.023802380238023804,0.42547721348677936
0.023902390239023904,0.42498772575609034
0.024002400240024,0.42438231793678227
0.0241024102410241,0.42398988545196686
0.0242024202420242,0.42353216544000416
0.024302430243024302,0.42298923324863935
0.024402440244024402,0.4224646644637239
0.024502450245024503,0.4219550899436631
0.024602460246024603,0.4214264829854407
0.024702470247024703,0.4209656126123186
0.024802480248024804,0.42060003625423115
0.024902490249024904,0.4200066780420903
0.025002500250025,0.4195810907756501
0.0251025102510251,0.4191845660170239
0.025202520252025202,0.41859859098653607
0.025302530253025302,0.4180983219239245
0.025402540254025403,0.417538739184608
0.025502550255025503,0.4171982662221836
0.025602560256025603,0.41672537530097026
0.025702570257025704,0.41632360860203027
0.025802580258025804,0.4157866173760058
0.0259025902590259,0.4152946204039114
0.026002600260026,0.41490438932137663
0.026102610261026102,0.41452437059315356
0.026202620262026202,0.4140343662259618
0.026302630263026303,0.41358940783746284
0.026402640264026403,0.4130801599830856
0.026502650265026503,0.4126060774977856
0.026602660266026604,0.41215935762865363
0.026702670267026704,0.41182414126288114
0.0268026802680268,0.41134197937541045
0.0269026902690269,0.41082522578486624
0.027002700270027002,0.41040360831219025
0.027102710271027102,0.40999751607334733
0.027202720272027203,0.40961343710387876
0.027302730273027303,0.4091441604534265
0.027402740274027403,0.40866455032833093
0.027502750275027504,0.40822542
0.027602760276027604,0.40781552897245416
0.027702770277027704,0.40738517
0.0278027802780278,0.40690346384002096
0.0279027902790279,0.4065493766142372
0.028002800280028002,0.4061703439718803
0.028102810281028102,0.4057373642335396
0.028202820282028203,0.4053414777715341
0.028302830283028303,0.40483318025051496
0.028402840284028404,0.4045308425565153
0.028502850285028504,0.403971048493327
0.028602860286028604,0.4036300989230835
0.0287028702870287,0.4032982096254733
0.0288028802880288,0.4029247445168255
0.028902890289028902,0.4024941939741529
0.029002900290029002,0.4019449240128811
0.029102910291029103,0.40165132896887273
0.029202920292029203,0.4013027881886846
0.029302930293029304,0.40089235
0.029402940294029404,0.40050530216962443
0.029502950295029504,0.40016667578443216
0.029602960296029605,0.39971865124141553
0.0297029702970297,0.39925730378862795
0.029802980298029802,0.39899300750641276
0.029902990299029902,0.39859377477543134
0.030003000300030003,0.3981776419645485
0.030103010301030103,0.3978106846449994
0.030203020302030203,0.39741604535039515
0.030303030303030304,0.3970157250643338
0.030403040304030404,0.3966365612532059
0.030503050305030505,0.39612810229946843
0.0306030603060306,0.3959336718514682
0.030703070307030702,0.3955872654553445
0.030803080308030802,0.3952207
0.030903090309030903,0.3947974097602635
0.031003100310031003,0.39449215669690524
0.031103110311031103,0.3941290886503436
0.031203120312031204,0.3937480603257404
0.0313031303130313,0.3934216540649361
0.0314031403140314,0.39303784709343714
0.0315031503150315,0.39271849056905717
0.0316031603160316,0.39224330336088276
0.0317031703170317,0.3919446773243043
0.0318031803180318,0.39160874117704125
0.0319031903190319,0.3912107749707965
0.032003200320032,0.3908340462040679
0.032103210321032104,0.3905237668562926
0.032203220322032204,0.39026011630123125
0.032303230323032305,0.3898407930554056
0.032403240324032405,0.3894536551030527
0.032503250325032505,0.38916322444565726
0.032603260326032606,0.38888831835209897
0.032703270327032706,0.3884777658747537
0.032803280328032806,0.38817409
0.0329032903290329,0.3877733019019428
0.033003300330033,0.38758209
0.0331033103310331,0.3871191490288552
0.0332033203320332,0.3868746777780838
0.0333033303330333,0.3865765909579039
0.0334033403340334,0.3861611922638634
0.0335033503350335,0.3859304882118704
0.0336033603360336,0.38548950075414895
0.0337033703370337,0.385156860477526
0.0338033803380338,0.38484078210680517
0.033903390339033904,0.3846381627675074
0.034003400340034004,0.38421959938609435
0.034103410341034104,0.38395375
0.034203420342034205,0.3835911803005672
0.034303430343034305,0.38329528303859767
0.034403440344034406,0.38299774078787163
0.034503450345034506,0.3826756211807601
0.034603460346034606,0.3823956300262704
0.03470347034703471,0.382116192655338
0.0348034803480348,0.38170651484382323
0.0349034903490349,0.3813282115158901
0.035003500350035,0.3810902892818764
0.0351035103510351,0.3808945536722702
0.0352035203520352,0.3806047537561334
0.0353035303530353,0.38011736184564476
0.0354035403540354,0.379919581435549
0.0355035503550355,0.37971365187737716
0.0356035603560356,0.37933676163201663
0.035703570357035704,0.37909616445063965
0.035803580358035804,0.378857457232291
0.035903590359035904,0.37843553239347905
0.036003600360036005,0.3782057189832794
0.036103610361036105,0.37789462375970967
0.036203620362036205,0.3775628889270481
0.036303630363036306,0.3773780692858456
0.036403640364036406,0.3770264227198897
0.03650365036503651,0.376678061795775
0.03660366036603661,0.37644013831585493
0.0367036703670367,0.3760683558546208
0.0368036803680368,0.37581921702446797
0.0369036903690369,0.3756368551478552
0.037003700370037,0.3752460284823014
0.0371037103710371,0.3750106493203206
0.0372037203720372,0.37478325526543577
0.0373037303730373,0.37450077556492695
0.0374037403740374,0.37418300804366855
0.0375037503750375,0.3739736948264274
0.037603760376037604,0.3735494647998329
0.037703770377037704,0.3733695782069177
0.037803780378037805,0.37320236688722297
0.037903790379037905,0.37288439547197655
0.038003800380038005,0.3725601795068471
0.038103810381038106,0.3722547321325498
0.038203820382038206,0.3720633941314977
0.038303830383038306,0.3717131796476818
0.03840384038403841,0.37140647017644896
0.03850385038503851,0.3712986808196829
0.0386038603860386,0.3708757874844831
0.0387038703870387,0.3707015888963425
0.0388038803880388,0.37033944098777055
0.0389038903890389,0.3701622811218471
0.039003900390039,0.3699172737616889
0.0391039103910391,0.36963239969200146
0.0392039203920392,0.3695018121022019
0.0393039303930393,0.36909767390913023
0.039403940394039404,0.3689677431748936
0.039503950395039504,0.36871475
0.039603960396039604,0.3684276521440491
0.039703970397039705,0.3681233039087233
0.039803980398039805,0.36785227593367564
0.039903990399039906,0.36759842735317433
0.040004000400040006,0.3673971
0.040104010401040106,0.3672408337637919
0.04020402040204021,0.3669482273766619
0.04030403040304031,0.36671013179611445
0.04040404040404041,0.36651920176214076
0.0405040504050405,0.3661655224618466
0.0406040604060406,0.3660404831801355
0.0407040704070407,0.36575448956277823
0.0408040804080408,0.3655622960360643
0.0409040904090409,0.36522727318865383
0.041004100410041,0.3650148543154206
0.0411041104110411,0.36476164534641026
0.041204120412041204,0.3645378185524921
0.041304130413041304,0.36432334382828274
0.041404140414041404,0.36415632540976833
0.041504150415041505,0.3638647892008291
0.041604160416041605,0.36361607056765033
0.041704170417041705,0.36343965079516233
0.041804180418041806,0.3630911282850187
0.041904190419041906,0.36293563395440254
0.04200420042004201,0.3627203594531556
0.04210421042104211,0.36250780198701366
0.04220422042204221,0.36232518353965903
0.0423042304230423,0.36195457
0.0424042404240424,0.36184001
0.0425042504250425,0.36161847506324984
0.0426042604260426,0.36134533387049383
0.0427042704270427,0.3611295497734454
0.0428042804280428,0.36085612720297894
0.0429042904290429,0.36080728266611306
0.043004300430043,0.360611723134978
0.043104310431043104,0.36040714453255235
0.043204320432043204,0.3600779779929563
0.043304330433043305,0.35975754022384776
0.043404340434043405,0.35966117312079554
0.043504350435043505,0.35933837
0.043604360436043606,0.35924284405329554
0.043704370437043706,0.3589479325173924
0.043804380438043806,0.35887365213742606
0.04390439043904391,0.3585730905048614
0.04400440044004401,0.35829655754945483
0.04410441044104411,0.35824987
0.0442044204420442,0.3579596408997123
0.0443044304430443,0.3577261418826352
0.0444044404440444,0.35754329
0.0445044504450445,0.3574208504675845
0.0446044604460446,0.35719888591589566
0.0447044704470447,0.35688681954923634
0.0448044804480448,0.3567149775730549
0.044904490449044904,0.35651319517987806
0.045004500450045004,0.35634379876234756
0.045104510451045104,0.35601831194290273
0.045204520452045205,0.35599251732238335
0.045304530453045305,0.35574461796720264
0.045404540454045406,0.35558535502546473
0.045504550455045506,0.3554560263011859
0.045604560456045606,0.3552341981945468
0.04570457045704571,0.35509511861864507
0.04580458045804581,0.3547981875925386
0.04590459045904591,0.35464229145196385
0.04600460046004601,0.3543847655052117
0.0461046104610461,0.35426457899145114
0.0462046204620462,0.35397226
0.0463046304630463,0.35377043470669567
0.0464046404640464,0.35353385354545447
0.0465046504650465,0.3535138904543569
0.0466046604660466,0.35326349870913676
0.046704670467046704,0.35310245579470834
0.046804680468046804,0.3530062194693736
0.046904690469046904,0.35275329930311466
0.047004700470047005,0.35253467607342237
0.047104710471047105,0.3524911740534361
0.047204720472047206,0.35215838794512916
0.047304730473047306,0.3520304810266287
0.047404740474047406,0.3519480179489904
0.04750475047504751,0.35164246
0.04760476047604761,0.35157667227983846
0.04770477047704771,0.3514080780996654
0.04780478047804781,0.35114595
0.04790479047904791,0.3509931887356646
0.048004800480048,0.3508695464238336
0.0481048104810481,0.3506302971406108
0.0482048204820482,0.35049516903503886
0.0483048304830483,0.3502780166778998
0.0484048404840484,0.35009559069799734
0.048504850485048503,0.34998973503444003
0.048604860486048604,0.34973556705362935
0.048704870487048704,0.3496500219146821
0.048804880488048805,0.34943126805392183
0.048904890489048905,0.3492744025849287
0.049004900490049005,0.34908734910467387
0.049104910491049106,0.34896413699025136
0.049204920492049206,0.34864839675456305
0.049304930493049307,0.3486923583953015
0.04940494049404941,0.34845334
0.04950495049504951,0.34827322178125547
0.04960496049604961,0.34807855364195284
0.04970497049704971,0.34797594
0.04980498049804981,0.34775035252523234
0.0499049904990499,0.34772768723826014
0.05000500050005,0.3474845877418035
0.0501050105010501,0.3473753789181079
0.0502050205020502,0.34721208
0.0503050305030503,0.34703573637933605
0.050405040504050404,0.34673485938888415
0.050505050505050504,0.34670652251322853
0.050605060506050605,0.3465909890571447
0.050705070507050705,0.3463971524579888
0.050805080508050805,0.3461843474447384
0.050905090509050906,0.34598991
0.051005100510051006,0.3460054346434712
0.051105110511051106,0.34590103623199003
0.05120512051205121,0.34568665782567526
0.05130513051305131,0.3454670127630356
