normalizedCapacity,voltage
0.0,3.00562372223554
0.00011011684498380339,3.15931279651615
0.00022024642950744418,3.24331676258257
0.00033038010348132466,3.30593790092299
0.0004405073033169759,3.35653119866754
0.0005506390691430058,3.39776950928197
0.0006607637626132085,3.43079834139444
0.0007708918008544173,3.45542677690028
0.0008810177769258171,3.47241848821826
0.0009911450613631519,3.48330082018596
0.0011012703495194363,3.49093754437381
0.0012113989029450868,3.49628325130531
0.0013215267787935817,3.50010161339924
0.0014316549017215257,3.50334722117908
0.0015417818128435972,3.50582915654013
0.001651906666879997,3.50812017379649
0.0017620341689617341,3.50983843673876
0.001872159887842862,3.51155669968102
0.001982287488948658,3.5128931264139
0.002092413467091011,3.51422955314677
0.0022025416607296807,3.51537506177495
0.0023126683908096667,3.51632965229844
0.002422793778981325,3.51747516092661
0.0025329187900898016,3.5184297514501
0.0026430497405142053,3.51900250576418
0.002753175745704252,3.51995709628767
0.0028633029649174375,3.52052985060176
0.002973433072976174,3.52129352302054
0.0030835602313034373,3.52186627733463
0.0031936880506757063,3.52262994975342
0.003303813760403212,3.52320270406751
0.003413940439065901,3.5237754583816
0.003524067687731441,3.52434821269568
0.003634198075201534,3.52473004890508
0.0037443282532778595,3.52511188511447
0.0038544595669249464,3.52568463942856
0.003964589492152956,3.52606647563795
0.00407471665139486,3.52663922995204
0.004184843052264737,3.52702106616143
0.004294973608294613,3.52740290237083
0.004405101767844049,3.52778473858022
0.004515228527713373,3.52816657478961
0.004625357693420051,3.52854841099901
0.004735483924520573,3.5289302472084
0.004845612540747945,3.52912116531309
0.004955738875855709,3.52950300152249
0.005065865393109043,3.52988483773188
0.005175989931536535,3.53007575583658
0.0052861166867147705,3.53045759204597
0.0053962442741609575,3.53083942825536
0.005506374569102136,3.53103034636006
0.005616501712787805,3.53122126446475
0.00572663306848639,3.53160310067415
0.0058367590741961696,3.53179401877884
0.00594688698093047,3.53217585498824
0.0060570179588007615,3.53255769119763
0.006167142357023424,3.53274860930233
0.006277268988048027,3.53293952740702
0.0063873951832968305,3.53313044551172
0.006497522077490892,3.53351228172111
0.0066076495200710714,3.53370319982581
0.006717774261161581,3.5338941179305
0.006827902013307925,3.5340850360352
0.00693802899260237,3.5342759541399
0.0070481557045022495,3.53446687224459
0.007158282377144623,3.53465779034929
0.007268408076307018,3.53503962655868
0.007378535203691908,3.53503962655868
0.007488663597565569,3.53523054466338
0.007598792284740152,3.53561238087277
0.007708917515028367,3.53580329897747
0.007819045984241194,3.53599421708217
0.00792917130699708,3.53618513518686
0.008039299229792862,3.53637605329156
0.008149428749546174,3.53656697139625
0.008259555321895552,3.53675788950095
0.008369684502670997,3.53694880760565
0.008479808089662456,3.53694880760565
0.008589932724100814,3.53713972571034
0.008700056756519447,3.53733064381504
0.008810182188932748,3.53733064381504
0.008920307738422145,3.53771248002443
0.009030434778345002,3.53771248002443
0.009140559704071273,3.53790339812913
0.009250688026862654,3.53809431623383
0.00936081407377703,3.53828523433852
0.009470939678692456,3.53847615244322
0.009581063104024037,3.53866707054791
0.009691188091250849,3.53885798865261
0.009801314508083121,3.53885798865261
0.009911436409126189,3.53904890675731
0.010021563908672398,3.539239824862
0.010131688436416066,3.5394307429667
0.01024181254760208,3.5396216610714
0.010351938691378909,3.5396216610714
0.010462068691172088,3.53981257917609
0.010572197467370217,3.54000349728079
0.010682319994362826,3.54000349728079
0.01079244945387753,3.54000349728079
0.010902573885275692,3.54019441538549
0.011012698662825044,3.54038533349018
0.011122822322219584,3.54038533349018
0.011232948667145583,3.54057625159488
0.011343073720764056,3.54076716969958
0.011453197316719378,3.54095808780427
0.011563325268874498,3.54114900590897
0.011673448663529668,3.54114900590897
0.011783574083677065,3.54114900590897
0.011893700128985992,3.54133992401366
0.012003822590480566,3.54153084211836
0.012113949954388225,3.54172176022306
0.012224075229001744,3.54191267832775
0.012334201021769887,3.54191267832775
0.012444323255992061,3.54210359643245
0.012554448822429096,3.54210359643245
0.012664572316281245,3.54229451453715
0.012774698229892084,3.54229451453715
0.012884824993457009,3.54248543264184
0.012994947119730055,3.54267635074654
0.013105072054545417,3.54267635074654
0.01321519717793055,3.54286726885124
0.013325323899221492,3.54286726885124
0.013435447958703233,3.54305818695593
0.013545574215765669,3.54305818695593
0.013655698189950787,3.54324910506063
0.013765823092571657,3.54324910506063
0.013875948274735313,3.54344002316533
0.013986076957782385,3.54344002316533
0.014096205584628593,3.54363094127002
0.014206331498450254,3.54382185937472
0.014316456680478866,3.54382185937472
0.014426584845670028,3.54382185937472
0.014536708164520963,3.54401277747941
0.014646834681713572,3.54420369558411
0.014756957443901568,3.54420369558411
0.014867083729152134,3.54420369558411
0.014977208517246982,3.54439461368881
0.015087334424548644,3.5445855317935
0.01519746172556016,3.5447764498982
0.015307587151676044,3.5447764498982
0.015417711848270685,3.5449673680029
0.015527839926477882,3.5449673680029
0.015637964188997086,3.54515828610759
0.01574809014379474,3.54515828610759
0.015858216295489908,3.54534920421229
0.01596834183487557,3.54534920421229
0.016078469801255827,3.54534920421229
0.016188594790095965,3.54554012231699
0.01629872112972094,3.54573104042168
0.016408847896978617,3.54573104042168
0.016518977298866432,3.54573104042168
0.016629101333016316,3.54592195852638
0.016739228730882287,3.54592195852638
0.016849353093538733,3.54611287663107
0.01695947851809316,3.54611287663107
0.017069604205569112,3.54611287663107
0.017179731596948435,3.54630379473577
0.017289858077848542,3.54630379473577
0.017399981769874527,3.54649471284047
0.017510109594233284,3.54649471284047
0.017620236341059477,3.54668563094516
0.017730360756154542,3.54668563094516
0.017840486100661718,3.54668563094516
0.01795061431388408,3.54687654904986
0.01806074116673799,3.54687654904986
0.0181708659681484,3.54706746715456
0.018280993033110194,3.54706746715456
0.018391121085489653,3.54725838525925
0.01850124642537405,3.54725838525925
0.018611369758446395,3.54744930336395
0.018721498518675536,3.54744930336395
0.018831621575029163,3.54764022146865
0.018941748972312326,3.54764022146865
0.01905187395480556,3.54764022146865
0.01916199911878714,3.54783113957334
0.019272127186304545,3.54783113957334
0.019382253229329422,3.54802205767804
0.01949237671011124,3.54802205767804
0.019602503015927062,3.54821297578273
0.019712628611957158,3.54821297578273
0.019822751745938203,3.54840389388743
0.01993287828206282,3.54840389388743
0.02004300361358116,3.54840389388743
0.020153129753533425,3.54859481199213
0.020263254303625324,3.54859481199213
0.020373379507882858,3.54878573009682
0.02048350411974905,3.54878573009682
0.020593631141467502,3.54878573009682
0.020703755565028667,3.54897664820152
0.020813879916276444,3.54897664820152
0.020924005251070694,3.54916756630622
0.021034131370869458,3.54916756630622
0.021144255350298985,3.54916756630622
0.021254379036853493,3.54916756630622
0.02136450752212724,3.54935848441091
0.02147463275291089,3.54935848441091
0.021584757658580093,3.54954940251561
0.021694884427949836,3.54954940251561
0.021805009051557658,3.54954940251561
0.0219151322789579,3.54954940251561
0.02202525993020787,3.54974032062031
0.022135384028500838,3.549931238725
0.022245511527978327,3.549931238725
0.02235563743270424,3.549931238725
0.022465762276254995,3.5501221568297
0.02257588664138167,3.5501221568297
0.022686012006971363,3.5501221568297
0.022796140947640188,3.5503130749344
0.0229062663522907,3.5503130749344
0.023016392463616493,3.5503130749344
0.023126519790671738,3.5503130749344
0.02323664436483645,3.55050399303909
0.02334677114464843,3.55069491114379
0.0234569000450147,3.55069491114379
0.023567024521811128,3.55069491114379
0.02367715023340915,3.55088582924849
0.02378727722397298,3.55088582924849
0.02389740315307514,3.55107674735318
0.024007529247069073,3.55107674735318
0.024117655493902598,3.55107674735318
0.024227781286984724,3.55107674735318
0.02433790849383157,3.55126766545788
0.024448037379888994,3.55126766545788
0.024558161321172455,3.55145858356257
0.024668290218593743,3.55145858356257
0.024778418292542306,3.55164950166727
0.024888553637020968,3.55164950166727
0.02499867692825169,3.55164950166727
0.025108806316689162,3.55184041977197
0.025218931698162906,3.55184041977197
0.02532905811712733,3.55184041977197
0.025439185895052376,3.55184041977197
0.02554931489113001,3.55203133787666
0.02565944155944954,3.55203133787666
0.02576957131805788,3.55222225598136
0.025879696882134165,3.55222225598136
0.025989826291978203,3.55222225598136
0.026099953340668502,3.55222225598136
0.026210086989104812,3.55241317408606
0.02632021960344027,3.55241317408606
0.026430348999958306,3.55241317408606
0.02654048099304315,3.55241317408606
0.02665060791324083,3.55260409219075
0.026760734791875896,3.55260409219075
0.026870862946082614,3.55260409219075
0.02698099356569855,3.55279501029545
0.027091119553045932,3.55279501029545
0.02720125048364922,3.55298592840015
0.027311380021975307,3.55298592840015
0.027421506617515096,3.55298592840015
0.0275316311758263,3.55298592840015
0.027641755060199315,3.55317684650484
0.02775188525255166,3.55317684650484
0.027862017631896357,3.55317684650484
0.027972147290228087,3.55336776460954
0.02808227733752282,3.55336776460954
0.02819240866461462,3.55336776460954
0.02830253868092961,3.55355868271423
0.02841266775066241,3.55355868271423
0.028522798902006416,3.55374960081893
0.028632925473601946,3.55374960081893
0.028743049976440827,3.55374960081893
0.02885317827759538,3.55394051892363
0.02896330589200186,3.55394051892363
0.029073432549538047,3.55413143702832
0.029183561744102658,3.55413143702832
0.02929368544803891,3.55413143702832
0.029403811630234235,3.55413143702832
0.029513941262397373,3.55413143702832
0.029624070720008378,3.55432235513302
0.029734195969196464,3.55451327323772
0.029844324459938253,3.55451327323772
0.029954453637972996,3.55451327323772
0.03006457930310357,3.55451327323772
0.03017470457228339,3.55470419134241
0.030284834070978952,3.55470419134241
0.030394960373550176,3.55470419134241
0.030505087546580226,3.55489510944711
0.03061521703288033,3.55489510944711
0.03072534528393145,3.55489510944711
0.030835474689757794,3.55489510944711
0.030945602161804846,3.55508602755181
0.03105573028405699,3.55508602755181
0.03116586002651221,3.55508602755181
0.031275988562105006,3.5552769456565
0.03138611626269142,3.5552769456565
0.031496241814339666,3.5552769456565
0.0316063664388322,3.5552769456565
0.0317164946117067,3.5552769456565
0.03182662320940942,3.5554678637612
0.0319367505536952,3.5554678637612
0.03204687959617308,3.5554678637612
0.032157004684771166,3.55565878186589
0.032267130295242356,3.55565878186589
0.03237725702734744,3.55565878186589
0.03248738896019565,3.55565878186589
0.03259751878893646,3.55584969997059
0.03270764813896528,3.55584969997059
0.03281777506724493,3.55584969997059
0.03292790380429718,3.55604061807529
0.03303803427398721,3.55604061807529
0.03314816419090992,3.55604061807529
0.03325829138645973,3.55604061807529
0.03336842122601149,3.55623153617998
0.03347855263084373,3.55623153617998
0.03358868312017114,3.55642245428468
0.03369881021853645,3.55623153617998
0.03380893521041844,3.55642245428468
0.033919064134773386,3.55642245428468
0.03402919636569622,3.55642245428468
0.03413932543146224,3.55642245428468
0.03424945202733538,3.55661337238938
0.034359579843643476,3.55661337238938
0.03446970355646267,3.55680429049407
0.034579833560946946,3.55699520859877
0.034689960070199755,3.55699520859877
0.03480008649274848,3.55699520859877
0.03491021396692861,3.55699520859877
0.03502033971238301,3.55718612670347
0.0351304650557317,3.55718612670347
0.035240592338139705,3.55718612670347
0.03535071746271376,3.55737704480816
0.035460844871770626,3.55718612670347
0.03557097224286382,3.55737704480816
0.03568110121181419,3.55756796291286
0.035791226862980086,3.55756796291286
0.03590135315890835,3.55756796291286
0.036011481090172166,3.55756796291286
0.0361216068397634,3.55775888101756
0.03623173573282728,3.55775888101756
0.0363418653712724,3.55775888101756
0.03645199505365824,3.55794979912225
0.03656212090527311,3.55794979912225
0.036672248253302946,3.55794979912225
0.03678237725339254,3.55794979912225
0.03689250195696272,3.55794979912225
0.03700262677245122,3.55814071722695
0.03711275467193318,3.55814071722695
0.03722288040553853,3.55814071722695
0.037333005304807,3.55833163533164
0.0374431317152133,3.55833163533164
0.03755325588328069,3.55833163533164
0.03766338040510555,3.55833163533164
0.03777350671322869,3.55833163533164
0.03788363082442597,3.55852255343634
0.03799375661482404,3.55852255343634
0.038103879822742937,3.55852255343634
0.03821400434764311,3.55852255343634
0.038324128560567744,3.55871347154104
0.038434257981369874,3.55871347154104
0.03854438259240659,3.55871347154104
0.03865450801038679,3.55890438964573
0.038764636746316944,3.55890438964573
0.03887476643689306,3.55890438964573
0.03898489534396109,3.55890438964573
0.03909502170648855,3.55909530775043
0.03920514714138873,3.55909530775043
0.039315272964423456,3.55909530775043
0.03942540596834826,3.55909530775043
0.03953553114889941,3.55909530775043
0.039645660323970086,3.55928622585513
0.039755787871974146,3.55928622585513
0.039865916214193914,3.55947714395982
0.039976046974238955,3.55947714395982
0.04008617404909797,3.55947714395982
0.040196301323903984,3.55947714395982
0.040306426328109775,3.55947714395982
0.04041655544026229,3.55966806206452
0.04052668318831721,3.55966806206452
0.04063681157583167,3.55985898016922
0.0407469371481965,3.55985898016922
0.040857068216110175,3.55985898016922
0.04096719362459268,3.55985898016922
0.0410773204449045,3.56004989827391
0.04118744660950819,3.56004989827391
0.041297571845417505,3.56024081637861
0.04140769885926017,3.56024081637861
0.041517823694916814,3.56024081637861
0.0416279500134953,3.56024081637861
0.04173807480347222,3.56024081637861
0.04184820109663281,3.56024081637861
0.04195832836954592,3.56043173448331
0.042068457919407824,3.56043173448331
0.04217858688493987,3.560622652588
0.04228871388726111,3.560622652588
0.042398844974629396,3.560622652588
0.04250897229591865,3.560622652588
0.04261910241895274,3.5608135706927
0.04272923356802901,3.5608135706927
0.04283936336160755,3.5608135706927
0.04294948908747789,3.5608135706927
0.04305961990243714,3.56100448879739
0.04316974853085753,3.56100448879739
0.04327988328462328,3.56100448879739
0.0433900102276313,3.56100448879739
0.043500140301936954,3.56100448879739
0.04361026920074164,3.56119540690209
0.043720402036418436,3.56119540690209
0.043830525843630515,3.56119540690209
0.043940651671223484,3.56138632500679
0.04405077789776236,3.56138632500679
0.044160907733631294,3.56138632500679
0.044271034881777645,3.56138632500679
0.04438116254735695,3.56138632500679
0.04449128769582486,3.56138632500679
0.04460141668018657,3.56157724311148
0.04471154268920488,3.56157724311148
0.044821670028682196,3.56157724311148
0.04493179767675159,3.56176816121618
0.04504192511008898,3.56176816121618
0.045152050845166575,3.56176816121618
0.04526218172769539,3.56176816121618
0.045372311638561265,3.56176816121618
0.04548243997204115,3.56195907932088
0.04559257367641664,3.56195907932088
0.04570270139614877,3.56195907932088
0.0458128292124934,3.56195907932088
0.045922957208129785,3.56214999742557
0.046033081458640074,3.56214999742557
0.04614321069687696,3.56214999742557
0.04625333728615156,3.56214999742557
0.046363464165919535,3.56234091553027
0.04647359302292372,3.56234091553027
0.04658371714921631,3.56234091553027
0.046693847072437435,3.56234091553027
0.046803974132901056,3.56253183363497
0.04691410017181812,3.56253183363497
0.047024229736567995,3.56253183363497
0.04713435578191101,3.56253183363497
0.04724448433591473,3.56272275173966
0.04735461084909347,3.56272275173966
0.04746474010996745,3.56272275173966
0.04757486614370223,3.56272275173966
0.04768499326956059,3.56291366984436
0.04779512074732464,3.56291366984436
0.047905246460683705,3.56310458794905
0.04801537253718134,3.56310458794905
0.04812550014890872,3.56310458794905
0.04823562481182263,3.56329550605375
0.04834575067539678,3.56329550605375
0.048455876090741416,3.56329550605375
0.048566001043795874,3.56329550605375
0.04867612943482872,3.56329550605375
0.04878625519554364,3.56329550605375
0.04889638597824474,3.56348642415845
0.04900651036280453,3.56348642415845
0.049116642849007054,3.56367734226314
0.049226766359337114,3.56367734226314
0.04933689407313879,3.56367734226314
0.04944702074408778,3.56367734226314
0.049557147859317065,3.56367734226314
0.049667274191242936,3.56367734226314
0.04977740146756662,3.56386826036784
0.04988752741168288,3.56386826036784
0.04999765777221182,3.56405917847254
0.050107782381607534,3.56405917847254
0.05021790833419727,3.56405917847254
0.05032803926410562,3.56405917847254
0.050438163471825545,3.56405917847254
0.05054828857544512,3.56425009657723
0.05065841607579155,3.56425009657723
0.050768539072544944,3.56425009657723
0.05087866580027022,3.56425009657723
0.05098879087500494,3.56444101468193
0.05109891573106698,3.56444101468193
0.051209044975363875,3.56444101468193
0.05131916973476402,3.56444101468193
0.05142929983911455,3.56444101468193
0.051539426783886025,3.56444101468193
0.05164955575723581,3.56444101468193
0.05175968347294489,3.56463193278663
0.05186981477512435,3.56463193278663
0.051979940902610135,3.56463193278663
0.052090068821350574,3.56482285089132
0.05220019889168105,3.56482285089132
0.05231032815743632,3.56482285089132
0.052420456731413066,3.56482285089132
0.052530581852080274,3.56482285089132
0.05264070765208855,3.56501376899602
0.052750835714219,3.56501376899602
0.05286096420219985,3.56501376899602
0.052971093668122304,3.56520468710072
0.05308122126011939,3.56520468710072
0.05319134741384389,3.56520468710072
0.053301473222078094,3.56520468710072
0.05341160365195113,3.56520468710072
0.05352173257912951,3.56539560520541
0.05363185875419695,3.56539560520541
0.05374198544097704,3.56539560520541
0.05385211074840004,3.56558652331011
0.05396223674597927,3.56558652331011
0.0540723626839944,3.56558652331011
0.054182490491369036,3.56558652331011
0.05429262277084326,3.56558652331011
0.05440275023430967,3.5657774414148
0.05451288034015344,3.5657774414148
0.054623008135857215,3.5657774414148
0.05473313751096932,3.5657774414148
0.05484326641451935,3.5659683595195
0.05495339469919927,3.5659683595195
0.055063521476827144,3.5659683595195
0.05517365074948412,3.5661592776242
0.055283778155402155,3.5661592776242
0.055393904587316724,3.5661592776242
0.0555040325301968,3.5661592776242
0.05561415902958688,3.56635019572889
0.05572428263644619,3.56635019572889
0.055834412947674064,3.56635019572889
0.05594453962715751,3.56635019572889
0.0560546688209251,3.56635019572889
0.056164797609904685,3.56654111383359
0.056274926384714666,3.56654111383359
0.05638505933918656,3.56654111383359
0.056495185288106466,3.56673203193829
0.05660531133535701,3.56673203193829
0.05671543583541115,3.56673203193829
0.05682556503873677,3.56673203193829
0.05693569008999689,3.56673203193829
0.057045819066123396,3.56692295004298
0.05715594683837866,3.56692295004298
0.0572660761261536,3.56692295004298
0.05737620432153409,3.56711386814768
0.05748632825534004,3.56711386814768
0.05759645618930752,3.56711386814768
0.05770658686884278,3.56711386814768
0.057816710061562124,3.56711386814768
0.05792683587229456,3.56730478625238
0.05803696290020107,3.56730478625238
0.05814708926823615,3.56730478625238
0.05825721646025816,3.56730478625238
0.058367341827238885,3.56730478625238
0.058477468354441745,3.56749570435707
0.058587595249922075,3.56749570435707
