normalizedCapacity,voltage
0.0,3.01459687315628
0.00022547340892193477,3.28188221973125
0.0004509741976977745,3.40177878948059
0.0006764761162614837,3.47146389769478
0.0009019816634641841,3.50181987634151
0.0011274854142883535,3.51480230746086
0.0013529876673621353,3.52186627733463
0.0015784889554697678,3.52683014805674
0.0018039824288274557,3.53026667394127
0.0020294938812905235,3.53313044551172
0.0022549882456157815,3.53542146276808
0.0024804885743507756,3.53733064381504
0.002705988403090748,3.53904890675731
0.0029314926967592427,3.54038533349018
0.003156992773550794,3.54191267832775
0.0033824954687081852,3.54305818695593
0.0036079965000138715,3.54401277747941
0.0038335008930218714,3.54515828610759
0.004058995514239032,3.54611287663107
0.004284498206335279,3.54687654904986
0.004510002932357479,3.54764022146865
0.0047355014011822025,3.54840389388743
0.0049610007901943615,3.54916756630622
0.005186508095182322,3.54954940251561
0.005412003774280893,3.5503130749344
0.005637506183436084,3.55088582924849
0.0058630114565179645,3.55145858356257
0.006088511153092379,3.55203133787666
0.006314010300918864,3.55241317408606
0.006539510926430588,3.55298592840015
0.006765012946292889,3.55336776460954
0.006990518803798381,3.55394051892363
0.007216014674467905,3.55432235513302
0.007441519919000809,3.55470419134241
0.007667017590621187,3.55508602755181
0.007892523335015632,3.5554678637612
0.008118024145481694,3.55584969997059
0.008343532474710086,3.55623153617998
0.008569034483297317,3.55642245428468
0.008794531324589176,3.55699520859877
0.00902002992415536,3.55737704480816
0.009245532966290866,3.55775888101756
0.009471031351821601,3.55794979912225
0.009696533605356213,3.55833163533164
0.009922036984130756,3.55852255343634
0.010147541877590791,3.55890438964573
0.010373044535585709,3.55909530775043
0.010598542255887189,3.55947714395982
0.010824040622626143,3.55966806206452
0.011049539419169682,3.56004989827391
0.011275049278965424,3.56024081637861
0.011500545535071379,3.560622652588
0.011726054895931535,3.5608135706927
0.011951548186360959,3.56100448879739
0.012177049316398908,3.56138632500679
0.01240255197292474,3.56138632500679
0.012628055439754622,3.56176816121618
0.012853550869179399,3.56195907932088
0.013079056660785874,3.56214999742557
0.013304564465302343,3.56234091553027
0.013530059337229734,3.56253183363497
0.013755566711602355,3.56272275173966
0.013981064134993575,3.56310458794905
0.014206564828155788,3.56329550605375
0.01443206691916942,3.56348642415845
0.014657564083233994,3.56367734226314
0.014883063668175068,3.56386826036784
0.015108577361495321,3.56405917847254
0.015334068583475814,3.56444101468193
0.015559571828562649,3.56444101468193
0.01578507484685929,3.56463193278663
0.01601057475828314,3.56482285089132
0.016236075661913308,3.56501376899602
0.016461577076680053,3.56520468710072
0.016687085306814908,3.56539560520541
0.016912578860423175,3.56558652331011
0.017138086397554042,3.5657774414148
0.017363582124987335,3.5659683595195
0.017589084265117037,3.5661592776242
0.017814589948023964,3.56635019572889
0.018040091518495643,3.56635019572889
0.018265589348879556,3.56673203193829
0.018491089107217546,3.56692295004298
0.01871659242255224,3.56711386814768
0.01894209606269672,3.56711386814768
0.019167592298557082,3.56730478625238
0.019393102462631005,3.56749570435707
0.019618602675911572,3.56749570435707
0.01984410335028194,3.56768662246177
0.020069597928336375,3.56787754056647
0.0202951054928754,3.56787754056647
0.020520606681791398,3.56825937677586
0.020746109450151123,3.56825937677586
0.020971607319628823,3.56845029488055
0.021197112572815036,3.56864121298525
0.021422611782915178,3.56864121298525
0.021648116038064647,3.56902304919464
0.021873615490747234,3.56921396729934
0.02209910947899991,3.56921396729934
0.022324613133747645,3.56940488540404
0.022550120490262518,3.56959580350873
0.02277562111133396,3.56978672161343
0.023001119940350943,3.56978672161343
0.023226616953897522,3.56997763971813
0.02345212157045841,3.57016855782282
0.02367761919582285,3.57016855782282
0.023903127916836266,3.57035947592752
0.024128630663698542,3.57055039403221
0.024354130007339086,3.57055039403221
0.024579630503823436,3.57074131213691
0.024805128628888125,3.57093223024161
0.02503063177814258,3.57093223024161
0.025256134672158502,3.5711231483463
0.02548164355293604,3.5711231483463
0.02570713615889511,3.571314066451
0.02593263443894787,3.5715049845557
0.02615814880922406,3.57169590266039
0.026383641172309298,3.57169590266039
0.026609144895242,3.57188682076509
0.02683463892107811,3.57207773886979
0.02706014361193575,3.57226865697448
0.027285647647337517,3.57245957507918
0.02751115229793948,3.57245957507918
0.027736647019071695,3.57265049318388
0.027962154202319837,3.57265049318388
0.028187650277150325,3.57284141128857
0.028413157938307017,3.57284141128857
0.02863865672383012,3.57303232939327
0.028864153222589332,3.57322324749796
0.02908965377657645,3.57322324749796
0.029315157105555014,3.57341416560266
0.029540663167211937,3.57360508370736
0.02976616490519745,3.57360508370736
0.02999167131857947,3.57360508370736
0.030217162405380197,3.57379600181205
0.030442670934285383,3.57398691991675
0.030668170680341424,3.57398691991675
0.030893672767854142,3.57417783802145
0.031119173164940683,3.57417783802145
0.03134467171403418,3.57436875612614
0.03157016963159859,3.57436875612614
0.03179567887126542,3.57455967423084
0.032021172363414944,3.57475059233554
0.032246677342474474,3.57475059233554
0.032472177422477884,3.57494151044023
0.032697684343238186,3.57513242854493
0.03292318304822935,3.57532334664963
0.03314868376394157,3.57532334664963
0.03337418119484951,3.57551426475432
0.03359968559241605,3.57551426475432
0.033825186681009124,3.57570518285902
0.03405069437974938,3.57570518285902
0.03427619402173334,3.57589610096371
0.03450169433910436,3.57589610096371
0.03472719060696858,3.57608701906841
0.03495269552597247,3.57627793717311
0.035178198834932665,3.57627793717311
0.03540369433404496,3.5764688552778
0.03562919416480055,3.5764688552778
0.035854703279408304,3.5766597733825
0.03608020379847015,3.5766597733825
0.03630570269449432,3.5768506914872
0.03653120363240572,3.5768506914872
0.036756709591026566,3.57704160959189
0.03698220427517402,3.57704160959189
0.03720770519505254,3.57704160959189
0.03743321078590896,3.57723252769659
0.03765871218538047,3.57742344580129
0.03788421592657047,3.57742344580129
0.03810971151504121,3.57761436390598
0.0383352110204006,3.57761436390598
0.03856071577059663,3.57780528201068
0.038786221080055694,3.57780528201068
0.03901172798749479,3.57799620011537
0.03923722148102148,3.57799620011537
0.039462717901049965,3.57818711822007
0.03968822163313119,3.57837803632477
0.039913724713722155,3.57837803632477
0.04013922680875158,3.57856895442946
0.040364726644333014,3.57856895442946
0.040590233119492,3.57875987253416
0.040815731162537595,3.57875987253416
0.04104122880015519,3.57895079063886
0.041266732917180936,3.57895079063886
0.04149223617241867,3.57914170874355
0.04171773579510556,3.57933262684825
0.04194323599103712,3.57933262684825
0.04216874472326495,3.57933262684825
0.04239423647834795,3.57952354495295
0.042619737238036484,3.57971446305764
0.042845242346967,3.57971446305764
0.04307075029725017,3.57971446305764
0.043296248271250844,3.57971446305764
0.04352174571796314,3.57990538116234
0.0437472468493898,3.58009629926704
0.04397275221082704,3.58009629926704
0.04419824934520476,3.58009629926704
0.044423756600028674,3.58028721737173
0.044649253675303355,3.58047813547643
0.04487476167847066,3.58047813547643
0.04510025835899772,3.58047813547643
0.045325759155768225,3.58066905358112
0.045551261127424185,3.58085997168582
0.04577675855457383,3.58085997168582
0.046002264238045404,3.58085997168582
0.04622776458624263,3.58105088979052
0.04645326887934119,3.58124180789521
0.04667876629778304,3.58143272599991
0.046904266224240314,3.58143272599991
0.04712976992408832,3.58162364410461
0.0473552698258794,3.58162364410461
0.04758076906288104,3.58162364410461
0.04780627457918998,3.5818145622093
0.04803178065961373,3.582005480314
0.04825728347624782,3.582005480314
0.04848277964744577,3.582005480314
0.04870827724841533,3.5821963984187
0.04893378338239407,3.58238731652339
0.04915928653457371,3.58238731652339
0.049384782229249795,3.58257823462809
0.04961028323435565,3.58257823462809
0.04983579013256582,3.58276915273278
0.05006129391885609,3.58276915273278
0.050286793349210074,3.58276915273278
0.05051229259140569,3.58296007083748
0.05073779049919437,3.58296007083748
0.050963291887652556,3.58315098894218
0.05118880082665076,3.58315098894218
0.051414298355733495,3.58315098894218
0.051639797882573654,3.58334190704687
0.05186529658353795,3.58334190704687
0.0520907985131997,3.58353282515157
0.05231630323799259,3.58353282515157
0.05254179953726266,3.58372374325627
0.052767309391255277,3.58372374325627
0.05299280560941831,3.58391466136096
0.05321831231595225,3.58391466136096
0.053443805593875265,3.58391466136096
0.05366931841525661,3.58410557946566
0.0538948091180542,3.58429649757036
0.054120322660229904,3.58429649757036
0.054345814778963934,3.58448741567505
0.05457131352866964,3.58467833377975
0.05479681508373936,3.58467833377975
0.05502231550279406,3.58467833377975
0.055247827204184974,3.58486925188445
0.055473321349320495,3.58506016998914
0.05569882452721198,3.58506016998914
0.05592432325099486,3.58506016998914
0.05614982866836718,3.58525108809384
0.05637532801400754,3.58525108809384
0.056600825069079846,3.58544200619853
0.05682633202366529,3.58544200619853
0.05705183777276558,3.58544200619853
0.05727733360316549,3.58563292430323
0.057502842218688476,3.58582384240793
0.05772834243603656,3.58582384240793
0.057953837208473365,3.58582384240793
0.05817934017885453,3.58582384240793
0.05840484150137309,3.58601476051262
0.05863034132833156,3.58620567861732
0.058855846871102575,3.58620567861732
0.05908134994494191,3.58620567861732
0.05930684699772679,3.58639659672202
0.05953234845030398,3.58658751482671
0.05975785529359932,3.58658751482671
0.0599833561022431,3.58658751482671
0.06020885149480354,3.58658751482671
0.060434360629433956,3.58677843293141
0.06065986300183243,3.58696935103611
0.06088535734227492,3.58696935103611
0.06111085813691268,3.58696935103611
0.06133635929235278,3.5871602691408
0.06156185873081837,3.5871602691408
0.06178736091105884,3.5873511872455
0.062012862566550905,3.5875421053502
0.06223836650110393,3.5875421053502
0.06246386891183542,3.58773302345489
0.06268937155139119,3.58773302345489
0.06291487016618166,3.58773302345489
0.06314037691892173,3.58792394155959
0.06336587489103322,3.58811485966428
0.06359137904188412,3.58811485966428
0.06381687835232581,3.58811485966428
0.06404237541368649,3.58830577776898
0.06426787803346093,3.58849669587368
0.06449337691905986,3.58849669587368
0.06471888568529319,3.58849669587368
0.06494438766674991,3.58868761397837
0.06516988433151429,3.58868761397837
0.06539538217360924,3.58887853208307
0.06562088426270776,3.58887853208307
0.0658463943309278,3.58887853208307
0.06607189085791824,3.58906945018777
0.06629739284395526,3.58906945018777
0.0665228962107882,3.58926036829246
0.06674839731725726,3.58926036829246
0.06697389069699479,3.58945128639716
0.06719939423147513,3.58945128639716
0.06742490177236428,3.58964220450186
0.06765040310741173,3.58964220450186
0.06787590613479134,3.58964220450186
0.06810140226185075,3.58983312260655
0.06832690894207624,3.58983312260655
0.06855240178402981,3.59002404071125
0.06877790757023187,3.59002404071125
0.06900341224436721,3.59002404071125
0.06922891431133912,3.59021495881594
0.06945441439006492,3.59040587692064
0.06967991170967934,3.59040587692064
0.06990541101320155,3.59059679502534
0.07013091735893316,3.59078771313003
0.0703564203388031,3.59078771313003
0.07058192461559246,3.59078771313003
0.07080741720777511,3.59078771313003
0.07103292017024733,3.59097863123473
0.07125842279459504,3.59097863123473
0.07148392669146873,3.59116954933943
0.07170942095542229,3.59116954933943
0.07193493444687944,3.59136046744412
0.07216042567813043,3.59155138554882
0.07238592467240458,3.59155138554882
0.07261142881412325,3.59155138554882
0.0728369276963362,3.59174230365352
0.0730624325058409,3.59174230365352
0.07328793559563969,3.59193322175821
0.07351344035751183,3.59193322175821
0.07373893790554564,3.59193322175821
0.0739644350309672,3.59212413986291
0.07418994319593467,3.59212413986291
0.07441543872511393,3.59231505796761
0.07464094436333837,3.59231505796761
0.07486644203102281,3.59231505796761
0.07509194974890793,3.5925059760723
0.07531744497496903,3.5925059760723
0.07554295177379847,3.592696894177
0.07576845000355932,3.592696894177
0.07599395822314595,3.592696894177
0.07621945065912053,3.59288781228169
0.0764449528146359,3.59307873038639
0.07667045502993272,3.59307873038639
0.07689595596093704,3.59326964849109
0.07712145732292847,3.59326964849109
0.07734696153630238,3.59326964849109
0.07757246672568692,3.59346056659578
0.07779796342902162,3.59365148470048
0.07802347174789084,3.59384240280518
0.07824896069618627,3.59384240280518
0.0784744624112268,3.59384240280518
0.07869997020822368,3.59403332090987
0.07892547114111144,3.59403332090987
0.0791509705287197,3.59422423901457
0.07937647245499768,3.59422423901457
0.07960197281366599,3.59422423901457
0.0798274707692831,3.59441515711927
0.08005297228176723,3.59441515711927
0.08027847947311291,3.59460607522396
0.08050397795636098,3.59460607522396
0.08072948139312393,3.59479699332866
0.08095498201863571,3.59479699332866
0.08118048406911846,3.59498791143336
0.08140598188713727,3.59498791143336
0.08163148778959707,3.59498791143336
0.0818569845077748,3.59517882953805
0.08208248482106437,3.59517882953805
0.08230798794964209,3.59536974764275
0.08253349715172524,3.59536974764275
0.08275899175634847,3.59536974764275
0.08298449684154703,3.59556066574744
0.08320999588621576,3.59575158385214
0.08343549371661506,3.59575158385214
0.08366099620185805,3.59575158385214
0.08388650248770917,3.59594250195684
0.08411199691904976,3.59613342006153
0.08433750126330539,3.59613342006153
0.08456300217033404,3.59613342006153
0.08478850202191414,3.59613342006153
0.08501400448154212,3.59651525627093
0.08523952037350137,3.59651525627093
0.08546500469913353,3.59651525627093
0.08569051423283844,3.59670617437562
0.08591601145327842,3.59689709248032
0.08614151430749607,3.59689709248032
0.08636701781595832,3.59689709248032
0.08659251572413507,3.59708801058502
0.08681801834836982,3.59708801058502
0.08704351581748161,3.59727892868971
0.08726901684889589,3.59727892868971
0.08749451955080045,3.59746984679441
0.08772002166427768,3.59746984679441
0.08794553010597683,3.5976607648991
0.08817103046741878,3.5976607648991
0.0883965292099935,3.5976607648991
0.08862202599822232,3.5978516830038
0.0888475268605105,3.5980426011085
0.08907303949220968,3.5980426011085
0.08929853928389288,3.5980426011085
0.08952403487678326,3.5980426011085
0.08974953233494193,3.59823351921319
0.08997504465646182,3.59842443731789
0.09020053564930357,3.59842443731789
0.09042604325581531,3.59842443731789
0.09065154897205505,3.59861535542259
0.09087704834919312,3.59861535542259
0.09110254147620184,3.59880627352728
0.09132805034754965,3.59880627352728
0.09155354644177495,3.59899719163198
0.09177905432488231,3.59918810973668
0.09200455310879901,3.59918810973668
0.09223005645536142,3.59918810973668
0.09245555960154173,3.59918810973668
0.0926810527914479,3.59937902784137
0.09290655378729028,3.59956994594607
0.09313205482218684,3.59956994594607
0.09335755947289931,3.59976086405077
0.09358306132363552,3.59995178215546
0.09380856602596102,3.59995178215546
0.09403405956696911,3.59995178215546
0.09425957318592276,3.60014270026016
0.09448506460244123,3.60014270026016
0.09471056446906621,3.60033361836485
0.09493606500813576,3.60033361836485
0.09516157257533346,3.60052453646955
0.09538707769742595,3.60052453646955
0.09561257449870805,3.60071545457425
0.09583807492765067,3.60071545457425
0.09606357384870474,3.60090637267894
0.09628908742121015,3.60090637267894
0.09651458390249733,3.60109729078364
0.09674008401644421,3.60109729078364
0.09696558268546916,3.60109729078364
0.09719107990590913,3.60128820888834
0.09741658140440823,3.60147912699303
0.09764208345512787,3.60147912699303
0.09786758546248864,3.60147912699303
0.09809308975844123,3.60167004509773
0.09831858602798274,3.60167004509773
0.09854409539878776,3.60186096320243
0.09876958983116724,3.60186096320243
0.09899509070848897,3.60186096320243
0.09922059652429215,3.60224279941182
0.09944609951756904,3.60224279941182
0.09967159978544153,3.60224279941182
0.09989710539776751,3.60243371751652
0.10012260087561457,3.60243371751652
0.10034810446919638,3.60262463562121
0.10057360508793074,3.60262463562121
0.10079910438674232,3.60281555372591
0.10102460922419013,3.6030064718306
0.10125010828142035,3.6030064718306
0.10147561735856325,3.6030064718306
0.10170111469539884,3.6031973899353
0.10192661265665638,3.60338830804
0.10215211678614483,3.60338830804
0.10237761460416366,3.60357922614469
0.10260311391254388,3.60357922614469
0.10282862728222707,3.60377014424939
0.10305412487137898,3.60377014424939
0.10327961856438857,3.60377014424939
0.10350512048717476,3.60396106235409
0.10373062451972835,3.60396106235409
0.1039561297229065,3.60415198045878
0.10418163223225911,3.60415198045878
0.1044071310742547,3.60434289856348
0.10463262742310463,3.60434289856348
0.1048581360125755,3.60453381666818
0.10508363265550037,3.60453381666818
0.10530913374001068,3.60472473477287
0.10553463551827441,3.60472473477287
0.10576013794888249,3.60491565287757
0.10598564063397405,3.60491565287757
0.10621114386239135,3.60491565287757
0.10643664293298252,3.60510657098226
0.10666214536108973,3.60529748908696
0.1068876427747507,3.60529748908696
0.10711315267440108,3.60548840719166
0.10733864792945315,3.60548840719166
0.10756415438832925,3.60567932529635
0.10778965490141473,3.60587024340105
0.10801515036670187,3.60606116150575
0.10824065022797924,3.60606116150575
0.10846615740572105,3.60606116150575
0.10869165573522141,3.60625207961044
0.10891715885470468,3.60644299771514
0.10914266006326231,3.60644299771514
0.10936816829199511,3.60644299771514
0.10959366459692853,3.60663391581984
0.10981916524921725,3.60682483392453
0.11004466464426702,3.60682483392453
0.11027017671838267,3.60682483392453
0.11049566912969107,3.60701575202923
0.11072116654156645,3.60720667013392
0.11094667008558338,3.60720667013392
0.11117217575720957,3.60720667013392
0.11139767709030698,3.60739758823862
0.11162317254056058,3.60758850634332
0.11184868002107783,3.60758850634332
0.11207417598886792,3.60758850634332
0.11229968383042568,3.60777942444801
0.11252518964998728,3.60777942444801
0.11275068926825922,3.60797034255271
0.11297618144874208,3.60797034255271
0.11320168800494163,3.60816126065741
0.11342719002856234,3.6083521787621
0.11365269000011992,3.6083521787621
0.11387819257108776,3.6083521787621
0.11410368985652,3.6085430968668
0.11432919350481387,3.6087340149715
0.11455469933813975,3.60892493307619
0.11478019068426726,3.60892493307619
0.11500569558272879,3.60911585118089
0.11523120803520114,3.60911585118089
0.1154567018717781,3.60930676928559
0.11568220054926819,3.60930676928559
0.1159077018499416,3.60949768739028
0.11613320810659182,3.60949768739028
0.11635870498350195,3.60968860549498
0.11658421176175761,3.60987952359968
0.11680970997816233,3.60987952359968
0.11703520823703248,3.60987952359968
0.11726071125530045,3.61007044170437
0.11748622167720749,3.61026135980907
0.11771171534599982,3.61026135980907
0.11793721186824704,3.61026135980907
0.11816272176334096,3.61045227791376
0.11838822453528813,3.61045227791376
0.11861372042997072,3.61064319601846
0.1188392223370822,3.61064319601846
0.1190647293090766,3.61083411412316
0.11929022471749211,3.61102503222785
0.1195157224678605,3.61102503222785
0.1197412271937401,3.61102503222785
0.11996672454256573,3.61121595033255
0.12019222834491292,3.61140686843725
0.1204177329542834,3.61140686843725
0.12064323213935181,3.61159778654194
0.12086873274983019,3.61159778654194
0.12109424101608231,3.61178870464664
