normalizedCapacity,voltage
0.9999999688032508,4.29713135163778
0.9998889434590702,4.28205168849016
0.9997779078505442,4.27957022493422
0.9996668699345332,4.27766140681426
0.9995558333739109,4.2763252341303
0.9994447942225975,4.27498906144633
0.9993337606313987,4.27365288876236
0.9992227221227954,4.27288936151438
0.9991116906428551,4.27155318883042
0.9990006505204342,4.27078966158243
0.9988896154045317,4.27002613433445
0.9987785788005226,4.26888084346248
0.9986675382468218,4.2681173162145
0.9985565019237642,4.26735378896652
0.9984454647710846,4.26678114353053
0.9983344262488871,4.26582673447056
0.9982233940776012,4.26525408903457
0.9981123594798738,4.26449056178659
0.9980013225832708,4.26353615272661
0.9978902898650828,4.26315438910262
0.9977792602017563,4.26239086185464
0.9976682213828333,4.26181821641866
0.9975571917801184,4.26124557098267
0.9974461624600174,4.26067292554668
0.9973351293151111,4.2599093982987
0.9972241009656226,4.25933675286272
0.9971130678166862,4.25876410742673
0.9970020390459969,4.25819146199075
0.9968910042428663,4.25761881655476
0.9967799640616465,4.25704617111877
0.9966689343702738,4.25628264387079
0.9965579047217961,4.2559008802468
0.9964468733525809,4.25532823481082
0.996335838754268,4.25475558937483
0.996224798803654,4.25399206212685
0.9961137674202291,4.25361029850286
0.9960027403940979,4.25322853487887
0.9958917046823845,4.25284677125488
0.9957806681380752,4.25227412581889
0.9956696347053141,4.25170148038291
0.9955586060421723,4.25131971675891
0.9954475729466492,4.25093795313492
0.9953365402676079,4.25036530769894
0.9952255103645196,4.24998354407495
0.9951144740594225,4.24922001682697
0.9950034458756587,4.24902913501497
0.9948924132810012,4.24864737139098
0.9947813831816722,4.248074725955
0.9946703465888377,4.247692962331
0.9945593142920731,4.24712031689502
0.9944482828499521,4.24673855327103
0.9943372477488457,4.24616590783504
0.9942262200821688,4.24578414421105
0.994115185275729,4.24521149877507
0.9940041520742723,4.24502061696307
0.9938931199825195,4.24463885333908
0.9937820854237063,4.24406620790309
0.9936710508940485,4.2436844442791
0.9935600154172418,4.24330268065511
0.9934489840755952,4.24273003521913
0.9933379517203765,4.24253915340713
0.9932269210793653,4.24196650797115
0.9931158885983656,4.24158474434716
0.9930048566394492,4.24101209891117
0.9928938238240571,4.24082121709917
0.992782790918632,4.24024857166319
0.9926717580483799,4.2398668080392
0.9925607268239643,4.23948504441521
0.9924496919095271,4.23910328079122
0.9923386536581179,4.23853063535523
0.9922276192307979,4.23833975354324
0.9921165851920734,4.23795798991925
0.9920055514198352,4.23757622629526
0.9918945165539849,4.23719446267126
0.9917834827092787,4.23662181723528
0.9916724526034696,4.23643093542328
0.9915614205234151,4.2358582899873
0.991450392081004,4.23547652636331
0.9913393532184352,4.23547652636331
0.9912283219148148,4.23471299911533
0.9911172908399641,4.23433123549133
0.9910062587948328,4.23414035367934
0.9908952276726847,4.23375859005535
0.9907841979981832,4.23337682643136
0.9906731692682077,4.23280418099537
0.9905621383317047,4.23261329918338
0.9904511030925853,4.23242241737138
0.9903400737613766,4.2318497719354
0.990229047773677,4.2316588901234
0.9901180160601569,4.23146800831141
0.9900069833318684,4.23108624468742
0.9898959536859331,4.23070448106342
0.9897849201641752,4.23013183562744
0.9896738893297161,4.22975007200345
0.9895628582489775,4.22955919019145
0.9894518280312883,4.22936830837946
0.9893407991236938,4.22879566294347
0.989229771255348,4.22879566294347
0.9891187420269769,4.22822301750749
0.9890077105739276,4.22803213569549
0.98889668181082,4.2276503720715
0.9887856446235977,4.22726860844751
0.9886746184668593,4.22688684482352
0.9885635888823128,4.22650508119953
0.9884525590035826,4.22631419938753
0.9883415259209282,4.22631419938753
0.988230495434777,4.22593243576354
0.988119463697812,4.22574155395155
0.9880084326874653,4.22516890851556
0.9878974026773647,4.22478714489157
0.9877863717889793,4.22421449945559
0.9876753430702455,4.22421449945559
0.9875643082666143,4.22402361764359
0.9874532797915359,4.22383273583159
0.9873422471100591,4.2234509722076
0.9872312198381121,4.22306920858361
0.9871201838879147,4.22268744495962
0.9870091552950393,4.22230568133563
0.9868981265657991,4.22249656314763
0.9867870942142923,4.22173303589965
0.9866760623986691,4.22154215408765
0.9865650317877016,4.22154215408765
0.9864539986027672,4.22096950865167
0.9863429670364031,4.22058774502768
0.9862319376048576,4.22020598140368
0.9861209073050726,4.22001509959169
0.9860098750299052,4.21982421777969
0.9858988425134706,4.2196333359677
0.9857878108650355,4.2194424541557
0.9856767790246739,4.21925157234371
0.9855657488845393,4.21886980871972
0.9854547198538404,4.21848804509573
0.985343687505873,4.21829716328373
0.9852326508815349,4.21772451784775
0.9851216197388958,4.21753363603575
0.9850105893004609,4.21734275422375
0.9848995561895341,4.21715187241176
0.9847885210135277,4.21677010878777
0.9846774913415011,4.21638834516378
0.9845664626047618,4.21619746335178
0.9844554327978171,4.21600658153979
0.984344396969875,4.21581569972779
0.9842333605998838,4.21524305429181
0.9841223319698346,4.21524305429181
0.9840112981205433,4.21505217247981
0.9839002643854692,4.21467040885582
0.9837892383671546,4.21428864523183
0.9836782054857189,4.21409776341984
0.9835671719790339,4.21371599979584
0.9834561418216504,4.21371599979584
0.9833451145688944,4.21352511798385
0.9832340830978356,4.21314335435986
0.9831230550163638,4.21295247254786
0.9830120268359291,4.21257070892387
0.9829009948697853,4.21257070892387
0.9827899626669441,4.21218894529988
0.9826789334360628,4.21199806348789
0.9825679047130007,4.2116162998639
0.9824568756937507,4.21123453623991
0.9823458409018732,4.2114254180519
0.982234814890752,4.21104365442791
0.9821237837115943,4.21085277261592
0.9820127520566443,4.21066189080392
0.981901725547373,4.21028012717993
0.9817906917336294,4.21008924536793
0.9816796667822095,4.20970748174394
0.981568633647231,4.20970748174394
0.9814576060694105,4.20932571811995
0.9813465751820597,4.20932571811995
0.9812355439362236,4.20894395449596
0.9811245154867139,4.20875307268397
0.9810134815268757,4.20837130905998
0.9809024559115431,4.20856219087197
0.9807914218023208,4.20798954543599
0.9806803929242939,4.20798954543599
0.9805693630724817,4.2074169
0.9804583298466769,4.20722601818801
0.9803473002527506,4.2074169
0.9802362705787322,4.20703513637601
0.9801252421868101,4.20684425456401
0.980014212373395,4.20665337275202
0.9799031833634514,4.20627160912803
0.9797921535388303,4.20608072731603
0.9796811210233191,4.20588984550404
0.9795700898065888,4.20569896369204
0.9794590598377387,4.20550808188005
0.9793480264404132,4.20531720006805
0.9792369942880534,4.20512631825606
0.9791259599971641,4.20474455463207
0.9790149306699841,4.20474455463207
0.9789039024080572,4.20417190919608
0.9787928697623712,4.20417190919608
0.9786818387192091,4.20417190919608
0.9785708084905921,4.20379014557209
0.9784597790737162,4.2035992637601
0.9783487469814027,4.2034083819481
0.9782377186007065,4.2032175001361
0.9781266889278081,4.20283573651211
0.9780156571592996,4.20283573651211
0.977904631907356,4.20283573651211
0.9777936005448551,4.20264485470012
0.9776825667787602,4.20245397288812
0.9775715348934706,4.20207220926413
0.9774605015279607,4.20188132745214
0.9773494699000718,4.20188132745214
0.977238441184042,4.20130868201615
0.9771274093136736,4.20130868201615
0.9770163755528919,4.20111780020416
0.9769053413519612,4.20073603658017
0.9767943103160298,4.20073603658017
0.9766832822959569,4.20054515476817
0.9765722489161234,4.20035427295617
0.97646122088729,4.20016339114418
0.9763501886573007,4.19997250933218
0.9762391617236273,4.19959074570819
0.9761281307403565,4.19959074570819
0.9760170992420861,4.1993998638962
0.9759060724429565,4.1993998638962
0.9757950396311486,4.19901810027221
0.975684008374528,4.1992089820842
0.9755729771646018,4.19882721846021
0.9754619455043648,4.19863633664822
0.9753509109140752,4.19825457302423
0.9752398805431343,4.19806369121223
0.9751288494519569,4.19806369121223
0.9750178172938229,4.19806369121223
0.9749067839634856,4.19787280940024
0.974795754336163,4.19749104577625
0.9746847202707942,4.19749104577625
0.97457368253095,4.19730016396425
0.9744626513611577,4.19672751852826
0.9743516186171286,4.19653663671627
0.9742405819491154,4.19672751852826
0.974129551057876,4.19634575490427
0.9740185156595271,4.19634575490427
0.9739074822913236,4.19615487309228
0.9737964491032798,4.19596399128028
0.9736854193617496,4.19577310946829
0.9735743838138591,4.19558222765629
0.9734633492462799,4.19577310946829
0.9733523172022381,4.1953913458443
0.973241280918743,4.19500958222031
0.9731302468568689,4.1952004640323
0.9730192150320618,4.19481870040831
0.9729081849290738,4.19481870040831
0.9727971568516764,4.19443693678432
0.9726861215368703,4.19424605497233
0.9725750815841894,4.19424605497233
0.9724640459837575,4.19405517316033
0.972353013544591,4.19405517316033
0.972241974519417,4.19386429134834
0.9721309439085396,4.19386429134834
0.9720199067478209,4.19329164591235
0.9719088745397291,4.19310076410035
0.971797838830059,4.19329164591235
0.9716868086708584,4.19290988228836
0.971575773460706,4.19310076410035
0.9714647414655414,4.19271900047636
0.9713537074442734,4.19233723685237
0.9712426758477601,4.19252811866437
0.9711316426032475,4.19233723685237
0.9710206123748395,4.19195547322838
0.9709095824986745,4.19195547322838
0.9707985495811804,4.19176459141639
0.9706875171539755,4.19157370960439
0.9705764808646791,4.1911919459804
0.9704654498011739,4.1911919459804
0.9703544157327268,4.1911919459804
0.9702433812504965,4.1911919459804
0.970132347360713,4.19081018235641
0.9700213167981799,4.19061930054442
0.9699102830715589,4.19061930054442
0.9697992580187628,4.19023753692043
0.9696882214798561,4.19042841873242
0.9695771862402388,4.19023753692043
0.9694661525708135,4.19004665510843
0.9693551248132556,4.19004665510843
0.9692440880903715,4.18966489148444
0.9691330600777067,4.18966489148444
0.9690220260027228,4.18947400967244
0.9689109909398959,4.18947400967244
0.9687999634782535,4.18909224604845
0.9686889316164613,4.18890136423646
0.9685778967940969,4.18909224604845
0.9684668638868841,4.18871048242446
0.9683558316778946,4.18871048242446
0.9682448026231812,4.18851960061247
0.9681337669280606,4.18832871880047
0.9680227341332054,4.18832871880047
0.9679116983624864,4.18813783698848
0.9678006658447037,4.18775607336449
0.9676896349452759,4.18775607336449
0.967578605817386,4.18775607336449
0.9674675709559335,4.18756519155249
0.9673565426359897,4.18756519155249
0.9672455082700343,4.1871834279285
0.9671344750932209,4.1873743097405
0.9670234468343063,4.1869925461165
0.9669124131494232,4.1869925461165
0.9668013812681169,4.18680166430451
0.9666903514693841,4.18661078249251
0.9665793143388876,4.18661078249251
0.9664682814681943,4.18661078249251
0.9663572461871781,4.18641990068052
0.9662462152625121,4.18641990068052
0.966135186937261,4.18584725524453
0.9660241566629972,4.18622901886852
0.9659131296018348,4.18603813705653
0.9658020990017491,4.18584725524453
0.9656910689583404,4.18565637343254
0.9655800387970701,4.18565637343254
0.9654690066667768,4.18527460980855
0.9653579778353807,4.18565637343254
0.9652469460096287,4.18508372799655
0.9651359194861522,4.18508372799655
0.9650248835708862,4.18489284618456
0.964913852832755,4.18470196437256
0.9648028195654913,4.18508372799655
0.9646917892430825,4.18470196437256
0.9645807568649902,4.18451108256057
0.9644697250176505,4.18412931893658
0.9643586953421648,4.18432020074857
0.9642476616605838,4.18412931893658
0.9641366357450855,4.18393843712458
0.9640256037415217,4.18393843712458
0.9639145721932024,4.18374755531259
0.9638035396581346,4.18374755531259
0.9636925062592208,4.18355667350059
0.9635814773196641,4.18355667350059
0.9634704430828113,4.18336579168859
0.9633594101904751,4.1831749098766
0.9632483784706594,4.1831749098766
0.9631373445012081,4.1829840280646
0.9630263181285768,4.18279314625261
0.9629152855514507,4.1829840280646
0.9628042544207461,4.18260226444061
0.962693224393018,4.18260226444061
0.9625821913027339,4.18260226444061
0.9624711561166734,4.18241138262862
0.9623601241579656,4.18241138262862
0.9622490935514105,4.18222050081662
0.9621380658076512,4.18183873719263
0.9620270327271666,4.18222050081662
0.9619160030759427,4.18183873719263
0.9618049752157337,4.18183873719263
0.9616939399445489,4.18164785538064
0.9615829138213402,4.18164785538064
0.9614718850454606,4.18164785538064
0.961360855815259,4.18145697356864
0.9612498290406492,4.18126609175665
0.961138797789243,4.18107520994465
0.9610277689650157,4.18107520994465
0.9609167364542902,4.18107520994465
0.9608057032661385,4.18088432813266
0.9606946737783122,4.18088432813266
0.9605836445385219,4.18069344632066
0.9604726148296772,4.18069344632066
0.9603615838303278,4.18069344632066
0.9602505559928266,4.18031168269667
0.9601395256527484,4.18050256450867
0.9600284983535294,4.18012080088468
0.9599174623871227,4.18031168269667
0.9598064327189028,4.18012080088468
0.9596954024714538,4.17992991907268
0.9595843730370568,4.18012080088468
0.9594733460374524,4.17973903726068
0.9593623152266111,4.17954815544869
0.9592512832298768,4.17954815544869
0.9591402541494418,4.17954815544869
0.9590292261602881,4.17935727363669
0.9589181939255348,4.17935727363669
0.9588071629217679,4.17935727363669
0.9586961317803813,4.1789755100127
0.958585101123331,4.1791663918247
0.9584740694431347,4.1789755100127
0.958363039313036,4.17859374638871
0.958252010949827,4.17859374638871
0.9581409816275923,4.17859374638871
0.9580299481807661,4.17859374638871
0.9579189200841948,4.17859374638871
0.9578078885621611,4.17840286457672
0.957696858037737,4.17821198276472
0.9575858303990904,4.17821198276472
0.9574748032486655,4.17821198276472
0.9573637694889714,4.17783021914073
0.9572527437354998,4.17783021914073
0.9571417112366506,4.17802110095273
0.957030684619308,4.17763933732874
0.9569196528364573,4.17783021914073
0.9568086229355195,4.17763933732874
0.9566975919971793,4.17763933732874
0.9565865607584945,4.17763933732874
0.9564755311241817,4.17744845551674
0.9563645021658939,4.17706669189275
0.9562534731905921,4.17725757370475
0.9561424425908254,4.17725757370475
0.9560314117509356,4.17706669189275
0.9559203789370211,4.17706669189275
0.9558093523318505,4.17706669189275
0.9556983187311953,4.17687581008076
0.955587280213489,4.17668492826876
0.9554762531153171,4.17668492826876
0.9553652205304285,4.17668492826876
0.95525418753527,4.17649404645676
0.9551431607085862,4.17649404645676
0.9550321253608952,4.17649404645676
0.9549210934007291,4.17592140102078
0.9548100607576421,4.17611228283277
0.9546990261936193,4.17592140102078
0.9545879954982588,4.17611228283277
0.9544769664284111,4.17611228283277
0.9543659351542119,4.17573051920878
0.9542549081443572,4.17573051920878
0.9541438751708285,4.17573051920878
0.9540328411176674,4.17553963739679
0.9539218092875467,4.17553963739679
0.9538107806121018,4.1751578737728
0.9536997496067291,4.17553963739679
0.9535887160093229,4.1751578737728
0.9534776834183314,4.17534875558479
0.9533666530201665,4.17534875558479
0.9532556261805684,4.1751578737728
0.9531445941651073,4.17477611014881
0.9530335620486362,4.17477611014881
0.9529225325029351,4.17477611014881
0.9528115027043742,4.17477611014881
0.952700466803519,4.17477611014881
0.9525894365828387,4.17458522833681
0.9524784060726526,4.17458522833681
0.9523673765839727,4.17439434652482
0.9522563469621229,4.17439434652482
0.9521453128228312,4.17458522833681
0.9520342813682361,4.17439434652482
0.9519232523028706,4.17420346471282
0.9518122229836752,4.17420346471282
0.9517011919440387,4.17420346471282
0.9515901579201713,4.17382170108883
0.9514791279829742,4.17382170108883
0.951368098961238,4.17382170108883
0.9512570635277493,4.17382170108883
0.9511460316050915,4.17382170108883
0.951035003479025,4.17382170108883
0.9509239722341083,4.17343993746484
0.9508129409577339,4.17343993746484
0.950701911659004,4.17363081927684
0.950590882110743,4.17343993746484
0.9504798556044639,4.17324905565285
0.9503688261134229,4.17324905565285
0.950257796019872,4.17305817384085
0.9501467635304929,4.17324905565285
0.9500357331653734,4.17305817384085
0.9499247032944197,4.17324905565285
0.9498136728856519,4.17286729202885
0.9497026402334485,4.17305817384085
0.9495916063220533,4.17248552840486
0.9494805813460258,4.17286729202885
0.9493695524173684,4.17267641021686
0.9492585228250441,4.17267641021686
0.9491474916550939,4.17267641021686
0.9490364657506117,4.17248552840486
0.9489254345053083,4.17210376478087
0.9488144063998112,4.17229464659287
0.9487033786176361,4.17210376478087
0.9485923469921304,4.17229464659287
0.9484813204040513,4.17210376478087
0.9483702854138063,4.17210376478087
0.9482592553935131,4.17210376478087
0.9481482247242746,4.17210376478087
0.9480371924935762,4.17172200115688
0.9479261664917503,4.17191288296888
0.9478151343847224,4.17191288296888
0.9477041058868145,4.17191288296888
0.9475930751901617,4.17172200115688
0.947482039929149,4.17172200115688
0.9473710158596416,4.17153111934489
0.9472599821147816,4.17153111934489
0.947148953205283,4.17153111934489
0.9470379272265292,4.17134023753289
0.9469268963613431,4.17134023753289
0.946815863383043,4.1711493557209
0.9467048389985652,4.1709584739089
0.9465938067069583,4.1711493557209
0.9464827749326076,4.1709584739089
0.9463717399526637,4.1709584739089
0.9462607122028879,4.1711493557209
0.94614968264398,4.17076759209691
0.9460386516925308,4.1709584739089
0.9459276213357616,4.1709584739089
0.9458165941883637,4.17076759209691
0.9457055661607617,4.17057671028491
0.9455945368691309,4.17076759209691
0.9454835062331152,4.17057671028491
0.9453724754775716,4.17057671028491
0.9452614432366819,4.17057671028491
0.9451504151094366,4.17057671028491
0.9450393801240278,4.17019494666092
0.944928354489022,4.17038582847292
0.9448173204283427,4.17019494666092
0.9447062926199092,4.17019494666092
0.9445952623348858,4.17019494666092
0.944484228087819,4.17019494666092
0.9443731987388635,4.17019494666092
0.9442621637713312,4.16981318303693
0.9441511303515239,4.17000406484892
0.9440401032636613,4.16981318303693
0.9439290701635512,4.16981318303693
0.9438180415420094,4.16962230122493
0.9437070098184509,4.16981318303693
0.9435959742782639,4.16943141941294
0.9434849461369789,4.16981318303693
0.9433739130823706,4.16962230122493
0.9432628845879013,4.16943141941294
0.9431518501079468,4.16962230122493
0.9430408199479102,4.16943141941294
0.9429297920592488,4.16943141941294
0.9428187570993972,4.16924053760094
0.9427077247130948,4.16943141941294
0.9425966919360045,4.16904965578895
0.9424856533401392,4.16924053760094
0.9423746184387973,4.16924053760094
0.9422635868272236,4.16924053760094
0.9421525518458463,4.16924053760094
0.9420415188865762,4.16904965578895
0.9419304836076025,4.16866789216496
0.941819445506098,4.16866789216496
0.9417084183449468,4.16885877397695
0.9415973863864611,4.16885877397695
0.9414863526516951,4.16866789216496
0.941375318474033,4.16866789216496
0.9412642858830811,4.16866789216496
0.9411532559055504,4.16866789216496
0.9410422208502182,4.16847701035296
0.9409311851095461,4.16847701035296
0.9408201464535443,4.16847701035296
0.9407091109737779,4.16847701035296
0.9405980769225863,4.16828612854097
0.9404870381605542,4.16828612854097
0.9403760062817761,4.16828612854097
0.9402649766792779,4.16828612854097
0.9401539448362719,4.16828612854097
0.9400429125525334,4.16790436491698
0.939931878695074,4.16790436491698
0.9398208482907412,4.16790436491698
0.9397098146897115,4.16790436491698
0.9395987783495012,4.16790436491698
0.9394877500283081,4.16790436491698
0.9393767149981568,4.16809524672897
0.939265686672227,4.16771348310498
0.9391546548939592,4.16771348310498
0.9390436247002352,4.16771348310498
0.9389325947257438,4.16771348310498
0.9388215666191941,4.16752260129299
0.9387105303750086,4.16771348310498
0.9385995016335993,4.16752260129299
0.9384884635036711,4.16771348310498
0.9383774334349015,4.16752260129299
0.9382664008686725,4.16733171948099
0.9381553688937023,4.16733171948099
