normalizedCapacity,voltage
0.9999999133378051,4.29713135163778
0.9999028907998663,4.29045048821795
0.9998058456046394,4.28892343372199
0.9997088066962354,4.28777814285001
0.9996117603725658,4.28682373379004
0.9995147212590572,4.28586932473006
0.9994176748477707,4.28491491567009
0.9993206308215344,4.2843422702341
0.999223585606645,4.28357874298612
0.9991265441267326,4.28281521573814
0.9990294937563046,4.28205168849016
0.9989324523546335,4.28147904305417
0.9988354105917574,4.28090639761818
0.9987383685121344,4.2803337521822
0.9986413260414555,4.27976110674621
0.9985442801574844,4.27918846131023
0.9984472357040746,4.27861581587424
0.9983501961530195,4.27823405225025
0.998253151529316,4.27766140681426
0.9981561086383878,4.27708876137828
0.9980590664285636,4.27651611594229
0.9979620211195787,4.27594347050631
0.9978649784983528,4.27556170688232
0.9977679359599361,4.27517994325833
0.9976708918897533,4.27460729782234
0.9975738496144654,4.27422553419835
0.997476801883402,4.27365288876236
0.9973797621384801,4.27327112513837
0.9972827188708587,4.27269847970239
0.9971856718915918,4.2723167160784
0.9970886289630884,4.27193495245441
0.9969915877547183,4.27136230701842
0.9968945481663184,4.27098054339443
0.9967975012886707,4.27059877977044
0.9967004588471189,4.27002613433445
0.9966034153501785,4.26964437071046
0.9965063668622054,4.26926260708647
0.9964093262434506,4.26888084346248
0.9963122805212477,4.26849907983849
0.9962152405491043,4.2681173162145
0.9961181957690999,4.26754467077851
0.9960211575263089,4.26716290715452
0.9959241119829827,4.26678114353053
0.9958270627235702,4.26639937990654
0.9957300211525199,4.26601761628255
0.9956329805607201,4.26563585265856
0.9955359375757511,4.26525408903457
0.9954388964085944,4.26468144359858
0.9953418496150699,4.26429967997459
0.995244812321311,4.2639179163506
0.995147764893051,4.26353615272661
0.9950507191487507,4.26315438910262
0.9949536784705952,4.26277262547863
0.9948566400036388,4.26239086185464
0.9947595900431339,4.26200909823065
0.9946625528970593,4.26162733460666
0.9945655060293614,4.26105468917067
0.9944684625163837,4.26086380735868
0.9943714192101883,4.26048204373469
0.9942743688456319,4.2601002801107
0.9941773308699254,4.2599093982987
0.9940802846014402,4.25933675286272
0.9939832334559393,4.25895498923873
0.9938861993463964,4.25857322561474
0.9937891528836813,4.25819146199075
0.9936921118426382,4.25780969836675
0.9935950677109531,4.25742793474276
0.9934980215951942,4.25723705293077
0.9934009736958027,4.25685528930678
0.9933039435737716,4.25647352568279
0.9932069027295465,4.2560917620588
0.9931098566976483,4.25570999843481
0.9930128044401042,4.25532823481082
0.9929157740267212,4.25494647118683
0.9928187335602114,4.25475558937483
0.9927216903006626,4.25437382575084
0.992624650414731,4.25418294393884
0.9925276053191506,4.25380118031485
0.9924305597337989,4.25341941669086
0.9923335157554977,4.25303765306687
0.9922364703076421,4.25265588944288
0.9921394285667418,4.25227412581889
0.9920423859393133,4.2518923621949
0.9919453446731519,4.25170148038291
0.9918482937435915,4.25131971675891
0.9917512591118268,4.25112883494692
0.99165421251165,4.25074707132293
0.9915571701057619,4.25036530769894
0.9914601282134227,4.24998354407495
0.9913630829189898,4.24979266226295
0.9912660409516102,4.24941089863896
0.9911689924464792,4.24902913501497
0.9910719516179353,4.24864737139098
0.9909749094936908,4.24845648957899
0.9908778639254051,4.248074725955
0.9907808170602102,4.247883844143
0.9906837808967637,4.24750208051901
0.990586734566926,4.24712031689502
0.9904896851878221,4.24692943508302
0.9903926423402787,4.24654767145903
0.9902955999572917,4.24616590783504
0.9901985583159059,4.24578414421105
0.9901015163505685,4.24559326239906
0.9900044740310464,4.24521149877507
0.9899074278536703,4.24502061696307
0.9898103867431408,4.24463885333908
0.9897133528538866,4.24425708971509
0.9896163094997843,4.24406620790309
0.9895192667438771,4.2436844442791
0.9894222200700643,4.24349356246711
0.9893251770895125,4.24311179884312
0.9892281385031323,4.24273003521913
0.9891310891034318,4.24253915340713
0.989034052230155,4.24215738978314
0.9889370141775167,4.24196650797115
0.9888399691097414,4.24158474434716
0.9887429309651963,4.24139386253516
0.9886458899170038,4.24101209891117
0.9885488502780839,4.24082121709917
0.9884518064974062,4.24043945347518
0.9883547637350092,4.24005768985119
0.9882577262586207,4.2398668080392
0.9881606831401163,4.23948504441521
0.9880636301682666,4.23929416260321
0.9879665921586731,4.23891239897922
0.9878695583349791,4.23872151716723
0.9877725050902978,4.23853063535523
0.9876754691794992,4.23814887173124
0.9875784201049047,4.23776710810725
0.9874813800006721,4.23757622629526
0.987384334381202,4.23719446267126
0.9872872922185773,4.23700358085927
0.9871902550976209,4.23662181723528
0.9870932119517752,4.23643093542328
0.9869961614361038,4.23604917179929
0.9868991157033355,4.2358582899873
0.9868020786820472,4.2356674081753
0.9867050338977904,4.23547652636331
0.98660799798644,4.23509476273932
0.9865109551590666,4.23471299911533
0.9864139138555191,4.23452211730333
0.9863168720407983,4.23414035367934
0.9862198288386117,4.23394947186734
0.9861227800655017,4.23356770824335
0.9860257391111309,4.23337682643136
0.985928694929533,4.23318594461936
0.9858316543004076,4.23280418099537
0.9857346167265703,4.23261329918338
0.9856375725530476,4.23242241737138
0.9855405353307792,4.23204065374739
0.9854434899912066,4.2318497719354
0.9853464492282544,4.2316588901234
0.9852494087065775,4.23127712649941
0.985152368824311,4.23108624468742
0.985055323523573,4.23070448106342
0.9849582842090441,4.23051359925143
0.9848612418191094,4.23032271743943
0.9847641961022922,4.22994095381544
0.9846671514804145,4.22975007200345
0.9845701116696687,4.22955919019145
0.9844730673751477,4.22936830837946
0.984376024492152,4.22898654475547
0.9842789839935386,4.22879566294347
0.9841819438928572,4.22860478113148
0.9840848962952613,4.22822301750749
0.9839878639268346,4.2278412538835
0.9838908161791193,4.2276503720715
0.9837937691072608,4.2274594902595
0.9836967342657278,4.22726860844751
0.9835996863463948,4.22688684482352
0.9835026417376509,4.22669596301152
0.9834055983596071,4.22650508119953
0.9833085626633027,4.22631419938753
0.9832115212187397,4.22612331757554
0.9831144787846644,4.22574155395155
0.9830174285808939,4.22555067213955
0.9829203945066479,4.22535979032756
0.9828233467269671,4.22497802670357
0.982726303023235,4.22478714489157
0.9826292585540726,4.22459626307958
0.9825322120675638,4.22421449945559
0.9824351701571143,4.22402361764359
0.9823381300661055,4.22383273583159
0.9822410806874989,4.2236418540196
0.9821440387005944,4.2234509722076
0.9820470012933966,4.22326009039561
0.9819499513946705,4.22287832677162
0.9818529154140856,4.22268744495962
0.9817558678345287,4.22249656314763
0.981658822402821,4.22230568133563
0.9815617817342152,4.22192391771164
0.9814647359009403,4.22173303589965
0.9813676909903556,4.22154215408765
0.9812706508113727,4.22135127227566
0.9811736126143389,4.22096950865167
0.9810765644587214,4.22077862683967
0.9809795226885979,4.22058774502768
0.980882477805362,4.22039686321568
0.9807854327060873,4.22020598140368
0.9806883841205039,4.22001509959169
0.9805913400663929,4.21982421777969
0.9804943027435777,4.2196333359677
0.9803972595695027,4.2194424541557
0.9803002102433601,4.21906069053171
0.9802031713159803,4.21886980871972
0.9801061274355227,4.21867892690772
0.9800090768418208,4.21829716328373
0.9799120370787802,4.21810628147174
0.9798149946944923,4.21791539965974
0.9797179504980371,4.21772451784775
0.979620895123421,4.21753363603575
0.9795238610515705,4.21734275422375
0.979426820247802,4.21715187241176
0.9793297705478862,4.21696099059976
0.9792327277522159,4.21677010878777
0.9791356854646882,4.21657922697577
0.9790386451107022,4.21638834516378
0.9789415958339254,4.21619746335178
0.9788445533971055,4.21581569972779
0.9787475165843046,4.2156248179158
0.9786504642765744,4.2154339361038
0.9785534252598784,4.21524305429181
0.9784563792830461,4.21505217247981
0.9783593378805818,4.21486129066782
0.9782622922026234,4.21447952704383
0.9781652422466162,4.21447952704383
0.9780682063907051,4.21428864523183
0.977971158028879,4.21409776341984
0.9778741186602368,4.21390688160784
0.9777770663804186,4.21371599979584
0.9776800283188893,4.21333423617185
0.9775829854540106,4.21333423617185
0.9774859377374443,4.21295247254786
0.9773888929878591,4.21276159073587
0.9772918490243538,4.21257070892387
0.9771948072292409,4.21237982711188
0.9770977614122686,4.21218894529988
0.9770007233706314,4.21199806348789
0.9769036724268106,4.21180718167589
0.9768066309207293,4.2116162998639
0.9767095933834505,4.2114254180519
0.9766125379043606,4.21123453623991
0.976515504293089,4.21104365442791
0.9764184571403913,4.21085277261592
0.9763214142387229,4.21066189080392
0.976224366722659,4.21047100899192
0.976127324811064,4.21028012717993
0.9760302730813104,4.21008924536793
0.9759332395456782,4.20989836355594
0.9758361921937662,4.20970748174394
0.9757391486474509,4.20951659993195
0.9756420996274536,4.20932571811995
0.9755450611535069,4.20913483630796
0.9754480189995106,4.20894395449596
0.9753509671903003,4.20875307268397
0.9752539316755784,4.20856219087197
0.9751568886062508,4.20837130905998
0.9750598446552295,4.20818042724798
0.9749627987305015,4.20798954543599
0.9748657511538695,4.20798954543599
0.9747687086651319,4.207607781812
0.974671667099127,4.2074169
0.9745746303327908,4.20722601818801
0.9744775847731365,4.20722601818801
0.9743805497968092,4.20703513637601
0.974283504973507,4.20665337275202
0.9741864604640751,4.20646249094002
0.9740894204461841,4.20646249094002
0.9739923777189949,4.20608072731603
0.9738953362044376,4.20608072731603
0.9737982885643817,4.20588984550404
0.973701250326312,4.20569896369204
0.973604197360511,4.20550808188005
0.9735071637616692,4.20531720006805
0.9734101156169466,4.20512631825606
0.9733130781710572,4.20493543644406
0.9732160383951127,4.20493543644406
0.973118993863444,4.20474455463207
0.9730219471946364,4.20455367282007
0.9729249140136397,4.20436279100808
0.9728278647508554,4.20417190919608
0.972730831529432,4.20398102738408
0.9726337850779133,4.20379014557209
0.9725367474370937,4.2035992637601
0.9724397063079492,4.2034083819481
0.9723426648242699,4.2034083819481
0.97224562164276,4.2032175001361
0.9721485794619249,4.20302661832411
0.9720515358633429,4.20283573651211
0.9719544972205697,4.20264485470012
0.971857457776138,4.20245397288812
0.9717604166311669,4.20226309107613
0.9716633770199465,4.20226309107613
0.9715663343677595,4.20207220926413
0.9714692900998692,4.20188132745214
0.9713722494593499,4.20188132745214
0.9712752133085644,4.20169044564014
0.971178172045466,4.20149956382815
0.9710811321004671,4.20130868201615
0.970984082693698,4.20111780020416
0.970887046605258,4.20092691839216
0.9707900015473054,4.20073603658017
0.9706929516527896,4.20054515476817
0.9705959116373308,4.20054515476817
0.9704988707583099,4.20035427295617
0.9704018324750824,4.20016339114418
0.9703047947616354,4.19997250933218
0.9702077506781451,4.19978162752019
0.9701107130525292,4.19959074570819
0.9700136668903078,4.1993998638962
0.9699166201139413,4.1993998638962
0.9698195835103378,4.1992089820842
0.9697225476550952,4.1992089820842
0.9696254983607009,4.19901810027221
0.9695284630540938,4.19882721846021
0.9694314207731916,4.19863633664822
0.9693343772283615,4.19844545483622
0.9692373381843187,4.19825457302423
0.9691402933553244,4.19825457302423
0.9690432505219536,4.19806369121223
0.9689462068742741,4.19787280940024
0.9688491723180293,4.19768192758824
0.9687521274216353,4.19749104577625
0.9686550883629307,4.19730016396425
0.968558047550661,4.19730016396425
0.96846099683671,4.19710928215226
0.968363959384919,4.19691840034026
0.96826691918998,4.19691840034026
0.9681698797725239,4.19672751852826
0.9680728350649801,4.19653663671627
0.9679757815415198,4.19634575490427
0.9678787409646471,4.19615487309228
0.9677817046985069,4.19615487309228
0.9676846585162183,4.19615487309228
0.9675876263468459,4.19577310946829
0.9674905853089859,4.19577310946829
0.9673935365378958,4.19577310946829
0.9672964994286313,4.1953913458443
0.9671994557335366,4.1953913458443
0.9671024156616354,4.1952004640323
0.9670053674840886,4.19500958222031
0.966908326823325,4.19500958222031
0.9668112873824928,4.19481870040831
0.9667142444573583,4.19462781859632
0.9666172012386963,4.19443693678432
0.9665201622408903,4.19424605497233
0.9664231189388335,4.19424605497233
0.9663260769897859,4.19405517316033
0.9662290294996564,4.19386429134834
0.9661319868976459,4.19367340953634
0.9660349525429206,4.19367340953634
0.965937906957499,4.19348252772434
0.9658408658498164,4.19329164591235
0.9657438268895824,4.19329164591235
0.9656467827297465,4.19310076410035
0.965549741460546,4.19310076410035
0.9654526945937244,4.19290988228836
0.9653556580874074,4.19271900047636
0.9652586154807467,4.19271900047636
0.9651615776522707,4.19252811866437
0.9650645320136151,4.19233723685237
0.9649674907195128,4.19233723685237
0.964870450431903,4.19214635504038
0.9647734066631247,4.19195547322838
0.9646763631983021,4.19195547322838
0.9645793237074858,4.19176459141639
0.9644822797902688,4.19157370960439
0.964385231848729,4.1913828277924
0.964288195770977,4.1911919459804
0.9641911473145559,4.1911919459804
0.9640941057971827,4.19100106416841
0.9639970647296765,4.19100106416841
0.9639000292346582,4.19081018235641
0.9638029780701233,4.19061930054442
0.9637059416147756,4.19042841873242
0.9636088999686487,4.19042841873242
0.9635118577673398,4.19023753692043
0.9634148064718471,4.19023753692043
0.9633177667066706,4.19004665510843
0.9632207140098484,4.19004665510843
0.9631236777532762,4.18985577329643
0.9630266336619261,4.18966489148444
0.9629295904810178,4.18966489148444
0.9628325486728551,4.18947400967244
0.9627355029970495,4.18947400967244
0.9626384666037547,4.18928312786045
0.9625414194275475,4.18928312786045
0.9624443772852244,4.18909224604845
0.9623473323784595,4.18890136423646
0.9622502867458627,4.18890136423646
0.9621532524631657,4.18871048242446
0.9620562105834735,4.18851960061247
0.9619591691903795,4.18851960061247
0.9618621193944064,4.18832871880047
0.9617650757913979,4.18813783698848
0.9616680368829487,4.18813783698848
0.9615709979584013,4.18794695517648
0.9614739549611784,4.18775607336449
0.9613769094181904,4.18775607336449
0.9612798689214423,4.18756519155249
0.9611828151755752,4.18756519155249
0.9610857778666307,4.1873743097405
0.9609887330792426,4.1873743097405
0.9608916933377558,4.1871834279285
0.9607946499163862,4.1871834279285
0.9606976038938256,4.1869925461165
0.9606005641632507,4.1869925461165
0.960503519609713,4.18680166430451
0.9604064688261548,4.18680166430451
0.9603094350382403,4.18661078249251
0.9602123920420693,4.18661078249251
0.9601153460800987,4.18641990068052
0.9600183050668963,4.18622901886852
0.9599212624013396,4.18622901886852
0.9598242177689701,4.18603813705653
0.9597271734862625,4.18603813705653
0.95963013191213,4.18584725524453
0.9595330932838374,4.18584725524453
0.9594360473335207,4.18565637343254
0.9593390034142995,4.18546549162054
0.9592419594484415,4.18546549162054
0.9591449157542306,4.18527460980855
0.9590478764169826,4.18508372799655
0.9589508349532767,4.18508372799655
0.9588537929962853,4.18508372799655
0.9587567431792056,4.18489284618456
0.9586597019563289,4.18470196437256
0.9585626635566077,4.18470196437256
0.9584656155241227,4.18451108256057
0.9583685755145485,4.18451108256057
0.9582715340546454,4.18432020074857
0.958174491597377,4.18432020074857
0.9580774473730546,4.18412931893658
0.957980399475025,4.18412931893658
0.9578833668733228,4.18393843712458
0.9577863213676855,4.18393843712458
0.9576892794389067,4.18393843712458
0.9575922384578696,4.18374755531259
0.9574951933700497,4.18355667350059
0.957398154563385,4.18355667350059
0.9573011134275657,4.18355667350059
0.957204070887198,4.18336579168859
0.9571070312146601,4.1831749098766
0.9570099888607554,4.1831749098766
0.9569129401492529,4.1831749098766
0.9568158956923982,4.1829840280646
0.9567188571603961,4.18279314625261
0.9566218202548668,4.18279314625261
0.9565247752697565,4.18279314625261
0.9564277326502063,4.18260226444061
0.956330684897321,4.18241138262862
0.9562336483810902,4.18241138262862
0.9561366016174273,4.18222050081662
0.9560395610854876,4.18222050081662
0.9559425082230582,4.18202961900463
0.9558454665347047,4.18202961900463
0.9557484248600202,4.18183873719263
0.9556513902757349,4.18183873719263
0.9555543440295321,4.18164785538064
0.9554573002292793,4.18164785538064
0.9553602559544527,4.18145697356864
0.9552632167538482,4.18145697356864
0.9551661787759319,4.18145697356864
0.9550691353160644,4.18126609175665
0.9549720904581125,4.18126609175665
0.9548750478190713,4.18107520994465
0.9547780058986085,4.18107520994465
0.954680956888038,4.18088432813266
0.9545839135979758,4.18088432813266
0.9544868737446967,4.18069344632066
0.9543898262326872,4.18069344632066
0.9542927891009049,4.18069344632066
0.9541957456466967,4.18050256450867
0.9540987014041166,4.18050256450867
0.9540016559024448,4.18031168269667
0.953904607711913,4.18031168269667
0.9538075701788303,4.18012080088468
0.9537105177965122,4.18012080088468
0.9536134873097604,4.18012080088468
0.953516439809826,4.17992991907268
0.9534193968968063,4.17992991907268
0.9533223531709338,4.17973903726068
0.9532253081313896,4.17973903726068
0.9531282702238161,4.17954815544869
0.9530312269375678,4.17954815544869
0.9529341849376647,4.17935727363669
0.9528371359538741,4.1791663918247
0.9527400962101629,4.1791663918247
0.9526430466551217,4.1791663918247
0.9525460046909738,4.1789755100127
0.9524489696756068,4.1789755100127
0.9523519187053492,4.17878462820071
0.952254884211354,4.17878462820071
0.9521578397592998,4.17859374638871
0.9520607938388909,4.17859374638871
0.9519637556463719,4.17859374638871
0.9518667109282525,4.17840286457672
0.9517696689663253,4.17840286457672
0.9516726279406084,4.17821198276472
0.951575582070149,4.17821198276472
0.9514785368470677,4.17821198276472
0.9513814972258758,4.17802110095273
0.95128444990569,4.17802110095273
0.9511874146118844,4.17783021914073
0.9510903697882226,4.17783021914073
0.9509933258480915,4.17783021914073
0.9508962821716311,4.17783021914073
0.950799242888391,4.17763933732874
0.9507022025079318,4.17763933732874
0.9506051565097183,4.17744845551674
0.9505081136993386,4.17744845551674
0.9504110743969932,4.17744845551674
0.9503140348690574,4.17725757370475
0.9502169973476334,4.17725757370475
0.9501199497891366,4.17706669189275
0.9500229128907116,4.17706669189275
0.9499258639632385,4.17706669189275
0.9498288205704841,4.17687581008076
0.9497317830915413,4.17687581008076
0.9496347395569203,4.17668492826876
0.9495377006753524,4.17668492826876
0.949440659959864,4.17668492826876
0.9493436115770056,4.17649404645676
0.9492465748362379,4.17649404645676
0.9491495361373518,4.17649404645676
0.9490524857511696,4.17630316464477
0.9489554467493984,4.17611228283277
0.94885840241434,4.17611228283277
0.9487613651794946,4.17611228283277
0.948664320080667,4.17592140102078
0.9485672705078245,4.17592140102078
0.9484702353140702,4.17592140102078
0.948373188917965,4.17573051920878
0.9482761485611937,4.17573051920878
0.9481790950578479,4.17553963739679
0.9480820608178454,4.17553963739679
0.9479850163301644,4.17553963739679
0.9478879742963608,4.17534875558479
0.9477909338386562,4.17534875558479
0.9476938908270925,4.17534875558479
0.9475968403637183,4.1751578737728
0.9474997998379333,4.1751578737728
0.947402758771237,4.1751578737728
0.9473057145092034,4.1749669919608
0.9472086721273036,4.1749669919608
0.9471116309030276,4.17477611014881
0.9470145810118633,4.17477611014881
0.9469175398130444,4.17477611014881
0.9468204987185671,4.17477611014881
0.9467234496914188,4.17477611014881
0.9466264127760015,4.17458522833681
0.9465293622478791,4.17458522833681
0.946432316656878,4.17458522833681
0.9463352839319125,4.17439434652482
0.9462382367463553,4.17439434652482
0.94614119294135,4.17439434652482
0.9460441524905953,4.17420346471282
0.9459471084302424,4.17420346471282
