normalizedCapacity,voltage
0.9999999456160422,4.29750033502607
0.9998918725220455,4.29425463305373
0.999783787210737,4.29330001482657
0.9996757017453847,4.29253632024484
0.9995676097767907,4.29158170201768
0.9994595226030005,4.29100893108139
0.999351432522523,4.29043616014509
0.9992433457289442,4.2898633892088
0.9991352636565093,4.2892906182725
0.9990271844519388,4.2887178473362
0.9989191032513437,4.28814507639991
0.99881102404168,4.28757230546361
0.9987029418553609,4.28719045817275
0.9985948628496604,4.28661768723645
0.9984867860271345,4.28604491630016
0.9983787020487924,4.28547214536386
0.9982706140466806,4.285090298073
0.9981625286690435,4.28470845078214
0.9980544464595593,4.28413567984584
0.9979463613775761,4.28375383255498
0.9978382792945232,4.28318106161868
0.9977301994425606,4.28279921432782
0.9976221169403471,4.28222644339152
0.9975140380453003,4.28184459610066
0.9974059611986337,4.28146274880979
0.9972978795502468,4.28108090151893
0.9971898028294837,4.28050813058263
0.9970817255843878,4.28012628329177
0.9969736453785086,4.27974443600091
0.9968655740887595,4.27917166506461
0.9967574920610761,4.27878981777375
0.9966494177045606,4.27840797048288
0.9965413390577688,4.27802612319202
0.9964332630078491,4.27764427590116
0.996325177156713,4.27726242861029
0.996217100361691,4.276689657674
0.9961090217395493,4.27630781038313
0.9960009455451606,4.27592596309227
0.9958928671215619,4.2755441158014
0.995784789919974,4.27516226851054
0.9956767101542524,4.27478042121968
0.9955686305422178,4.27439857392881
0.9954605565133532,4.27401672663795
0.9953524785929542,4.27363487934709
0.9952444026900458,4.27325303205622
0.9951363209043649,4.27287118476536
0.9950282490967499,4.2724893374745
0.9949201693365428,4.27210749018363
0.994812090541614,4.27172564289277
0.9947040137819422,4.2713437956019
0.9945959395104673,4.27096194831104
0.9944878607085632,4.27058010102018
0.9943797824270135,4.27019825372931
0.9942717044501098,4.26981640643845
0.9941636210569719,4.26943455914759
0.9940555397919149,4.26905271185672
0.9939474615951962,4.26886178821129
0.993839383572223,4.26847994092043
0.9937313026783745,4.26809809362956
0.9936232231744165,4.2677162463387
0.9935151453453441,4.26733439904783
0.9934070704951511,4.26695255175697
0.9932989922238947,4.26676162811154
0.9931909154968454,4.26637978082068
0.9930828360575832,4.26599793352981
0.9929747571246421,4.26561608623895
0.9928666781591964,4.26523423894808
0.992758596351203,4.26504331530265
0.9926505164870243,4.26447054436636
0.9925424412981407,4.26408869707549
0.9924343584322193,4.26389777343006
0.9923262828955429,4.2635159261392
0.9922182018126002,4.26332500249377
0.9921101283031125,4.2629431552029
0.9920020491215374,4.26256130791204
0.9918939633918933,4.26217946062117
0.9917858873069638,4.26198853697574
0.9916778100156799,4.26141576603945
0.9915697320060652,4.26122484239401
0.9914616522064233,4.26103391874858
0.9913535701956416,4.26046114781229
0.9912454880033996,4.26027022416686
0.9911374096226754,4.25988837687599
0.9910293309376661,4.25969745323056
0.9909212531282005,4.2593156059397
0.990813176051011,4.25912468229426
0.9907050959655369,4.2587428350034
0.9905970150699644,4.25836098771254
0.9904889331614058,4.25797914042167
0.9903808466923446,4.25759729313081
0.9902727717648306,4.25740636948538
0.9901646894451162,4.25721544583994
0.9900566113184109,4.25683359854908
0.9899485246968887,4.25645175125822
0.989840442135953,4.25626082761279
0.9897323532633965,4.25587898032192
0.9896242766333452,4.25549713303106
0.9895161966913066,4.25530620938563
0.9894081185714041,4.25492436209476
0.989300036872986,4.2545425148039
0.9891919597058835,4.25435159115847
0.9890838836705207,4.25416066751304
0.9889758002876727,4.25377882022217
0.9888677171554593,4.25339697293131
0.9887596411346234,4.25320604928588
0.9886515599872702,4.25282420199501
0.9885434748247222,4.25263327834958
0.9884353850115061,4.25225143105872
0.9883272958537918,4.25186958376785
0.9882192037993455,4.25167866012242
0.9881111212416439,4.25148773647699
0.9880030392931002,4.25110588918613
0.9878949520602588,4.25091496554069
0.9877868709821653,4.25072404189526
0.9876787816375761,4.2503421946044
0.9875706958898997,4.25015127095897
0.9874626212457603,4.2497694236681
0.9873545434024666,4.24938757637724
0.9872464670565295,4.24919665273181
0.9871383898252242,4.24881480544094
0.9870303102316659,4.24862388179551
0.986922233630193,4.24824203450465
0.9868141565880877,4.24805111085922
0.9867060772658555,4.24786018721378
0.9865979978340738,4.24766926356835
0.9864899240327101,4.24728741627749
0.9863818474577212,4.24709649263206
0.9862737703212595,4.24671464534119
0.9861656949943957,4.24633279805033
0.9860576166615853,4.2461418744049
0.9859495386814496,4.24576002711403
0.9858414602464097,4.2455691034686
0.9857333831164152,4.24537817982317
0.985625304955547,4.24499633253231
0.9855172318316993,4.24480540888687
0.9854091499237988,4.24461448524144
0.9853010741648236,4.24442356159601
0.9851929920808716,4.24404171430515
0.9850849126149825,4.24385079065971
0.9849768370529014,4.24365986701428
0.9848687593534178,4.24327801972342
0.9847606755897349,4.24308709607799
0.9846526006425597,4.24270524878712
0.9845445231634765,4.24251432514169
0.9844364433355044,4.24213247785083
0.98432836479773,4.2419415542054
0.9842202913073886,4.24175063055996
0.9841122113078655,4.24155970691453
0.9840041334435125,4.2413687832691
0.983896056220386,4.24098693597824
0.9837879734233878,4.2407960123328
0.9836798944094781,4.24041416504194
0.9835718156758391,4.24022324139651
0.9834637412172159,4.23984139410564
0.9833556640829828,4.23965047046021
0.9832475841097699,4.23945954681478
0.9831395083940192,4.23926862316935
0.9830314267930267,4.23888677587848
0.9829233475110704,4.23869585223305
0.9828152685329661,4.23850492858762
0.9827071933692173,4.23831400494219
0.9825991093374832,4.23812308129676
0.9824910382921054,4.23774123400589
0.9823829581761702,4.23755031036046
0.9822748819250444,4.2371684630696
0.98216680167825,4.23697753942417
0.9820587237575319,4.23678661577874
0.9819506463404433,4.2365956921333
0.9818425679461749,4.23621384484244
0.9817344909015258,4.23602292119701
0.9816264099767802,4.23583199755158
0.9815183346838019,4.23564107390614
0.9814102543258926,4.23545015026071
0.9813021708391599,4.23525922661528
0.9811940952525177,4.23487737932442
0.981086018461216,4.23468645567898
0.9809779370955448,4.23449553203355
0.9808698617027851,4.23430460838812
0.9807617841362055,4.23392276109726
0.9806537036967066,4.23373183745182
0.9805456299514945,4.23354091380639
0.9804375518479788,4.23334999016096
0.9803294760589322,4.23315906651553
0.980221399444513,4.23277721922467
0.9801133204051672,4.23277721922467
0.9800052451628025,4.2323953719338
0.9798971671373582,4.2323953719338
0.9797890900266204,4.23201352464294
0.9796810114809917,4.23182260099751
0.9795729341415024,4.23163167735207
0.979464857767811,4.23144075370664
0.9793567795048174,4.23124983006121
0.9792487044055628,4.23086798277035
0.9791406237969699,4.23067705912491
0.9790325445288389,4.23048613547948
0.9789244643060542,4.23029521183405
0.9788163861729259,4.23010428818862
0.978708308859817,4.22991336454319
0.978600227735541,4.22972244089776
0.9784921531525034,4.22953151725232
0.9783840726928273,4.22934059360689
0.9782759967658746,4.22895874631603
0.9781679189571729,4.2287678226706
0.978059840585345,4.22857689902516
0.9779517574210971,4.22838597537973
0.9778436779485905,4.2281950517343
0.9777355973449138,4.22800412808887
0.9776275222260755,4.22781320444344
0.9775194415297049,4.22743135715257
0.9774113667713746,4.22743135715257
0.977303286968542,4.22704950986171
0.9771952134217599,4.22685858621628
0.9770871349045608,4.22666766257085
0.9769790545060846,4.22666766257085
0.9768709720745606,4.22628581527998
0.9767628937812783,4.22628581527998
0.9766548154457442,4.22590396798912
0.9765467320919398,4.22571304434369
0.9764386581884517,4.22552212069825
0.9763305821063305,4.22533119705282
0.9762225034504549,4.22514027340739
0.9761144231548554,4.22494934976196
0.9760063451565641,4.22475842611653
0.9758982627557475,4.22456750247109
0.9757901903270578,4.22437657882566
0.9756821162534319,4.22418565518023
0.9755740381030772,4.2239947315348
0.9754659592086877,4.22380380788937
0.975357883248396,4.22361288424394
0.9752498053150928,4.2234219605985
0.975141730293876,4.22323103695307
0.9750336503374153,4.22304011330764
0.9749255729473597,4.22284918966221
0.974817495764756,4.22265826601678
0.9747094156257988,4.22246734237134
0.9746013387444575,4.22227641872591
0.9744932554362777,4.22208549508048
0.9743851784445823,4.22189457143505
0.9742770947334722,4.22170364778962
0.974169019031791,4.22151272414418
0.9740609397679855,4.22132180049875
0.9739528620706777,4.22113087685332
0.9738447839598977,4.22093995320789
0.9737367084329306,4.22074902956246
0.9736286281938469,4.22055810591702
0.9735205516976302,4.22055810591702
0.9734124712416252,4.22017625862616
0.9733043869863164,4.22017625862616
0.9731963079553234,4.2197944113353
0.973088228823616,4.2197944113353
0.9729801442332523,4.21960348768987
0.9728720638461856,4.21941256404443
0.9727639766632952,4.219221640399
0.9726558989746317,4.21903071675357
0.9725478207158853,4.21883979310814
0.9724397426591158,4.21864886946271
0.9723316656227184,4.21845794581728
0.9722235907993924,4.21826702217184
0.9721155120583224,4.21807609852641
0.9720074359699793,4.21788517488098
0.9718993556531913,4.21788517488098
0.9717912746637352,4.21750332759012
0.9716831955842662,4.21750332759012
0.9715751153875175,4.21731240394468
0.971467040512054,4.21712148029925
0.9713589619486939,4.21693055665382
0.9712508835120164,4.21673963300839
0.9711428024554706,4.21673963300839
0.9710347215787956,4.21635778571752
0.9709266452854232,4.21635778571752
0.9708185620905707,4.21616686207209
0.9707104832928831,4.21578501478123
0.9706024006155595,4.2155940911358
0.9704943293354298,4.2155940911358
0.9703862513971044,4.21540316749036
0.970278171328648,4.21521224384493
0.9701700935005741,4.2150213201995
0.9700620116025079,4.21483039655407
0.9699539382118736,4.21463947290864
0.9698458624551177,4.21444854926321
0.9697377849750771,4.21444854926321
0.9696297071456437,4.21425762561777
0.9695216290987169,4.21406670197234
0.9694135567056206,4.21406670197234
0.9693054777724267,4.21368485468148
0.96919740255231,4.21368485468148
0.9690893220098687,4.21349393103605
0.9689812407202072,4.21330300739061
0.9688731633087019,4.21311208374518
0.9687650876141212,4.21292116009975
0.9686570114433731,4.21273023645432
0.9685489332877071,4.21253931280889
0.9684408538807497,4.21253931280889
0.9683327772878533,4.21234838916345
0.9682246998792569,4.21215746551802
0.9681166191115627,4.21196654187259
0.9680085426613714,4.21196654187259
0.9679004637555991,4.21177561822716
0.9677923858168859,4.21158469458173
0.9676843074980392,4.2113937709363
0.9675762285885902,4.2113937709363
0.9674681496923053,4.21120284729086
0.9673600726949486,4.21101192364543
0.9672519899656362,4.21101192364543
0.9671439133320543,4.21063007635457
0.9670358286746268,4.21063007635457
0.9669277459367046,4.21043915270914
0.9668196619058814,4.2102482290637
0.9667115786631708,4.21005730541827
0.9666034967513338,4.21005730541827
0.9664954161934782,4.20967545812741
0.9663873386286019,4.20948453448198
0.9662792596263523,4.20948453448198
0.9661711751734202,4.20929361083654
0.9660630915074024,4.20910268719111
0.9659550136215762,4.20910268719111
0.9658469324344517,4.20891176354568
0.9657388539319575,4.20872083990025
0.9656307773638716,4.20872083990025
0.9655226932702646,4.20852991625482
0.9654146093176716,4.20833899260939
0.9653065319205929,4.20833899260939
0.9651984549189121,4.20814806896395
0.9650903744332104,4.20795714531852
0.9649823012991435,4.20795714531852
0.9648742213563678,4.20776622167309
0.964766138562886,4.20757529802766
0.9646580587909896,4.20738437438223
0.9645499855768351,4.20719345073679
0.9644419053589232,4.20719345073679
0.9643338261987898,4.20700252709136
0.9642257482153953,4.20681160344593
0.9641176729875038,4.2066206798005
0.9640095952268583,4.20642975615507
0.9639015116868547,4.20642975615507
0.963793431302849,4.20623883250963
0.9636853454638755,4.2060479088642
0.9635772629966622,4.2060479088642
0.963469187643505,4.20585698521877
0.9633611014971257,4.20566606157334
0.9632530212987875,4.20566606157334
0.9631449403372387,4.20547513792791
0.9630368634739439,4.20528421428248
0.9629287858710318,4.20528421428248
0.9628207008775115,4.20509329063704
0.9627126237108788,4.20490236699161
0.9626045433356142,4.20490236699161
0.9624964604807948,4.20471144334618
0.9623883763576235,4.20452051970075
0.9622802942183581,4.20452051970075
0.962172217683737,4.20432959605532
0.9620641391338941,4.20413867240988
0.961956058960233,4.20413867240988
0.9618479783781482,4.20394774876445
0.9617399065142374,4.20375682511902
0.9616318278257204,4.20375682511902
0.9615237518521201,4.20356590147359
0.9614156748524736,4.20337497782816
0.9613075948060439,4.20337497782816
0.961199519110004,4.20318405418272
0.961091439026035,4.20299313053729
0.9609833626944745,4.20299313053729
0.9608752860689472,4.20280220689186
0.9607672063557691,4.20261128324643
0.960659130869007,4.20261128324643
0.9605510504504928,4.202420359601
0.9604429734684733,4.20222943595556
0.9603348990920382,4.20222943595556
0.9602268176392375,4.20222943595556
0.9601187413373241,4.20203851231013
0.9600106669345122,4.2018475886647
0.9599025912361293,4.20165666501927
0.9597945145144253,4.20165666501927
0.9596864353174738,4.20146574137384
0.9595783572633075,4.20146574137384
0.9594702736110053,4.20127481772841
0.9593622018152201,4.20108389408297
0.9592541237300239,4.20108389408297
0.9591460484788467,4.20089297043754
0.9590379654738157,4.20070204679211
0.9589298914867179,4.20070204679211
0.9588218118605711,4.20051112314668
0.9587137347139545,4.20032019950125
0.9586056551008368,4.20032019950125
0.958497583424899,4.20012927585582
0.9583895078606405,4.19993835221038
0.9582814271496418,4.19993835221038
0.958173351747503,4.19974742856495
0.9580652689327764,4.19974742856495
0.9579571959790254,4.19955650491952
0.9578491194498844,4.19955650491952
0.9577410404158072,4.19936558127409
0.9576329605903393,4.19917465762866
0.9575248802239973,4.19917465762866
0.957416798475058,4.19917465762866
0.9573087165775361,4.19898373398322
0.9572006319668257,4.19879281033779
0.9570925511577995,4.19879281033779
0.9569844743784774,4.19860188669236
0.9568763957112146,4.19860188669236
0.9567683171414633,4.19841096304693
0.9566602376368526,4.1982200394015
0.9565521485714384,4.1982200394015
0.956444069843576,4.19802911575606
0.9563359892371897,4.19802911575606
0.9562279038562794,4.19783819211063
0.9561198319362333,4.1976472684652
0.9560117507874477,4.1976472684652
0.9559036668046554,4.19745634481977
0.9557955846275947,4.19726542117434
0.9556875036307738,4.19726542117434
0.9555794294222233,4.19726542117434
0.9554713438600962,4.1970744975289
0.9553632681553957,4.19688357388347
0.9552551908430309,4.19688357388347
0.955147114180498,4.19669265023804
0.9550390350918847,4.19669265023804
0.9549309553371262,4.19650172659261
0.9548228776219687,4.19650172659261
0.9547147981568624,4.19631080294718
0.9546067192612948,4.19611987930175
0.9544986436617351,4.19611987930175
0.9543905646301378,4.19611987930175
0.9542824844302162,4.19592895565631
0.9541744087957611,4.19592895565631
0.9540663321945924,4.19573803201088
0.9539582542754179,4.19573803201088
0.9538501760660558,4.19554710836545
0.9537420971896842,4.19554710836545
0.9536340191092338,4.19535618472002
0.9535259411071018,4.19535618472002
0.9534178553532813,4.19516526107459
0.9533097764915275,4.19497433742915
0.9532017003915473,4.19497433742915
0.9530936198827619,4.19478341378372
0.952985541307839,4.19478341378372
0.9528774619484843,4.19478341378372
0.9527693844789532,4.19440156649286
0.9526613048458418,4.19440156649286
0.9525532288603205,4.19421064284743
0.9524451493902072,4.19421064284743
0.9523370759077368,4.19401971920199
0.9522289975236555,4.19401971920199
0.9521209180160479,4.19382879555656
0.9520128381465813,4.19382879555656
0.9519047628524938,4.19363787191113
0.9517966854522889,4.19363787191113
0.9516886055847905,4.1934469482657
0.9515805278943574,4.1934469482657
0.951472449652181,4.19325602462027
0.9513643698096598,4.19325602462027
0.9512562935764644,4.19306510097484
0.9511482167303714,4.19306510097484
0.9510401406293568,4.19306510097484
0.9509320632584963,4.1928741773294
0.9508239857883976,4.1928741773294
0.9507159035582993,4.19268325368397
0.9506078318313174,4.19268325368397
0.9504997551528566,4.19249233003854
0.9503916788223905,4.19249233003854
0.9502835981306168,4.19230140639311
0.9501755200224852,4.19230140639311
0.9500674449862222,4.19211048274768
0.9499593640209981,4.19211048274768
0.9498512841140682,4.19191955910224
0.9497432094884578,4.19191955910224
0.9496351295295444,4.19191955910224
0.9495270455190863,4.19172863545681
0.949418970092352,4.19153771181138
0.949310889144412,4.19153771181138
0.9492028091718848,4.19134678816595
0.9490947234329369,4.19115586452052
0.9489866434924015,4.19115586452052
0.9488785615998758,4.19115586452052
0.9487704837138032,4.19096494087508
0.9486624046613018,4.19077401722965
0.9485543236894771,4.19077401722965
0.9484462453389477,4.19077401722965
0.9483381639174607,4.19058309358422
0.9482300850141904,4.19058309358422
0.9481220055921838,4.19058309358422
0.9480139270932352,4.19039216993879
0.9479058523226297,4.19039216993879
0.9477977717890541,4.19020124629336
0.9476896849458787,4.19001032264793
0.9475816007642467,4.19001032264793
0.9474735177234183,4.19001032264793
0.9473654399358393,4.19001032264793
0.9472573552497954,4.18981939900249
0.947149273738535,4.18962847535706
0.9470411929423712,4.18962847535706
0.946933106850521,4.18962847535706
0.946825030092596,4.18962847535706
0.9467169450191301,4.18943755171163
0.9466088565287618,4.1892466280662
0.9465007834547365,4.1892466280662
0.946392702777994,4.1892466280662
0.9462846175758366,4.18905570442077
0.9461765348766416,4.18886478077533
0.9460684560799958,4.18886478077533
0.9459603697599471,4.18886478077533
0.9458522873375828,4.1886738571299
0.9457442091316516,4.1886738571299
0.9456361356566293,4.18848293348447
0.9455280575456866,4.18848293348447
0.945419976628925,4.18848293348447
0.9453118997153586,4.18829200983904
0.9452038214051476,4.18810108619361
0.9450957391952102,4.18810108619361
0.9449876552854726,4.18810108619361
0.9448795790626661,4.18791016254817
0.9447714973934275,4.18791016254817
0.9446634154255887,4.18771923890274
0.9445553297091737,4.18771923890274
0.9444472474112203,4.18771923890274
0.9443391660076679,4.18752831525731
0.9442310814007265,4.18752831525731
0.9441230011220879,4.18733739161188
0.9440149223848813,4.18733739161188
0.9439068396527713,4.18733739161188
0.9437987595492823,4.18714646796645
0.9436906797444096,4.18714646796645
0.9435825992762542,4.18695554432102
0.9434745167493556,4.18695554432102
0.9433664286392952,4.18695554432102
0.9432583491123105,4.18676462067558
0.9431502750359155,4.18676462067558
0.9430421987527995,4.18657369703015
0.9429341209169448,4.18657369703015
0.9428260417554036,4.18657369703015
0.9427179647621653,4.18657369703015
0.9426098838553398,4.18638277338472
0.9425018082664453,4.18638277338472
0.9423937348104862,4.18619184973929
0.9422856492018777,4.18619184973929
0.9421775648124026,4.18600092609386
0.9420694916344413,4.18600092609386
0.9419614090530541,4.18600092609386
0.9418533289451283,4.18581000244842
0.9417452474938601,4.18581000244842
0.9416371710301866,4.18581000244842
0.9415290961097337,4.18561907880299
0.9414210168553163,4.18561907880299
0.9413129401761005,4.18542815515756
0.9412048599797426,4.18542815515756
0.941096782254258,4.18523723151213
0.9409887063783018,4.18523723151213
0.940880618670154,4.1850463078667
0.9407725437869594,4.1850463078667
0.9406644633335088,4.1850463078667
0.9405563839618659,4.1850463078667
0.9404483050983472,4.18485538422126
0.9403402285177184,4.18485538422126
0.9402321547847485,4.18466446057583
0.9401240703158004,4.18466446057583
0.9400159886848691,4.18466446057583
0.9399079099596604,4.1844735369304
0.9397998260540423,4.1844735369304
