normalizedCapacity,voltage
5.3258955912127703e-08,1.69600726541654
0.00011202076360994351,1.51025590687869
0.0002240051533357601,1.42473010150874
0.0003359888667242572,1.37280371967699
0.0004479717847676312,1.33595889727431
0.0005599565661101868,1.30216856792056
0.0006719471441546387,1.27162363743129
0.0007839282596787678,1.24432410580651
0.0008959142098070583,1.2198881614151
0.0010078988198527483,1.19755218099482
0.0011198776444284464,1.17712525873012
0.0012318585509568658,1.15803467717433
0.0013438435469768084,1.140471342143
0.0014558274794523873,1.12405344200502
0.0015678130426073356,1.10859007094483
0.0016797998091084843,1.09408122896243
0.001791788547426787,1.08052691605782
0.001903774118062973,1.06754532059988
0.0020157651490748663,1.05532734840417
0.002127747455129003,1.04368209365514
0.00223973572451186,1.03241865053722
0.0023517150094087835,1.02210973649709
0.002463693057040084,1.01160991664141
0.002575673228878639,1.0016828142324
0.0026876541191466208,0.9921375234545
0.0027996354118763334,0.982783138492162
0.0029116159347276627,0.973619659345382
0.0030235999774754774,0.96464708601416
0.003135581990928782,0.955865418498496
0.0032475669550389163,0.94727465679839
0.003359548802297163,0.939065706729399
0.00347153707967085,0.930856756660409
0.0035835241894948133,0.923029618222534
0.0036955091476984503,0.915584291415775
0.0038074953931264144,0.908138964609016
0.00391947512960944,0.900884543617815
0.004031459778845337,0.89401193425773
0.004143438309834546,0.887330230713203
0.004255421563223782,0.880839432984234
0.0043673997084678895,0.874348635255265
0.0044793772440225865,0.868048743341853
0.004591366761895421,0.862130663059558
0.004703352092182311,0.85640348859282
0.004815330382315963,0.850676314126083
0.004927313931670674,0.845330951290461
0.0050393072815902995,0.839794682639282
0.005151292483800529,0.834640225619218
0.0052632742339004945,0.829676674414712
0.0053752606581085605,0.824713123210206
0.005487244917170231,0.819940477821258
0.0055992317468223085,0.81516783243231
0.005711212290934187,0.81058609285892
0.0058232020756593394,0.80600435328553
0.005935190737065832,0.801613519527698
0.006047172293083158,0.797222685769866
0.006159159619342103,0.793022757827592
0.0062711468864791176,0.789013735700875
0.0063831251187581595,0.784813807758601
0.006495115650896333,0.780995691447443
0.006607096893106124,0.777177575136284
0.006719084615503634,0.773168553009568
0.0068310711780720235,0.769541342513968
0.006943055617627092,0.765914132018367
0.007055038836507155,0.762477827338325
0.007167023942778128,0.759041522658282
0.0072790044803908716,0.75560521797824
0.00739098743547284,0.752359819113755
0.007502963981439126,0.749114420249271
0.007614942649301959,0.745869021384786
0.0077269236102707195,0.742814528335859
0.007838904856678153,0.739760035286933
0.007950887630289727,0.736896448053564
0.008062862650237812,0.734032860820195
0.008174845751709459,0.731169273586826
0.008286828970083704,0.728496592169015
0.008398806848328055,0.725823910751205
0.008510782974298414,0.723151229333394
0.00862277110261267,0.720478547915583
0.008734754124975819,0.717805866497772
0.008846735948014106,0.715324090895519
0.008958714721120753,0.712842315293266
0.009070697556122553,0.710551445506571
0.009182682797618247,0.70787876408876
0.009294662295818767,0.705587894302065
0.0094066441218148,0.70329702451537
0.009518627562396631,0.701006154728675
0.009630602210252803,0.69871528494198
0.009742580718205218,0.696424415155285
0.009854563893619939,0.694324451184148
0.009966542588424998,0.692224487213011
0.01007852675084886,0.689933617426316
0.010190502401342116,0.687833653455179
0.010302485696006003,0.6859245952996
0.010414467828894325,0.683824631328462
0.010526455584548455,0.681724667357325
0.010638440924612635,0.679815609201746
0.010750420378804804,0.677715645230609
0.01086240445990494,0.67580658707503
0.010974387447933664,0.673897528919451
0.011086371424619768,0.671797564948314
0.011198356873958981,0.670079412608292
0.011310340071986502,0.668170354452713
0.011422324080037072,0.666070390481576
0.011534305774699827,0.664352238141555
0.011646294612836727,0.662443179985976
0.011758279997765242,0.660534121830397
0.011870263865681685,0.658815969490375
0.011982248487120817,0.656906911334796
0.012094231029954994,0.655188758994775
0.012206218789362566,0.653279700839196
0.012318196781757051,0.651752454314732
0.012430182341821028,0.649843396159153
0.012542164867809569,0.648125243819132
0.012654147697538143,0.646407091479111
0.012766128850412284,0.644688939139089
0.012878109900698487,0.642970786799068
0.012990089857513265,0.641252634459047
0.013102074006801523,0.639534482119026
0.013214047323461986,0.638007235594562
0.013326029083192359,0.636289083254541
0.013438010355489749,0.63457093091452
0.01354998520104278,0.633043684390056
0.013661966058612363,0.631516437865593
0.013773947619669435,0.629798285525572
0.01388592518732612,0.628271039001108
0.013997906023729523,0.626552886661087
0.014109888510344337,0.625025640136624
0.014221869394871245,0.62349839361216
0.014333854057754003,0.621971147087697
0.014445826660614558,0.620443900563234
0.014557811380647823,0.61891665403877
0.014669795106466266,0.617389407514307
0.014781776280507697,0.615862160989844
0.014893765061388842,0.61433491446538
0.015005741902429426,0.612807667940917
0.015117726074622362,0.611280421416454
0.015229710485960446,0.609944080707548
0.015341692440836163,0.608416834183085
0.015453677330720561,0.607080493474179
0.015565656219493795,0.605553246949716
0.01567764053471976,0.604026000425253
0.015789627141580054,0.602689659716347
0.015901610051393567,0.601162413191884
0.016013591277417305,0.599826072482979
0.016125577871761165,0.598298825958515
0.016237562453661702,0.59696248524961
0.016349544152895357,0.595626144540704
0.01646152658148048,0.594289803831799
0.0165735107603443,0.592953463122894
0.016685496831945312,0.59142621659843
0.016797485058653305,0.590089875889525
0.016909472765956446,0.588753535180619
0.017021459440746067,0.587417194471714
0.017133439809838058,0.586271759578366
0.017245418970359028,0.584935418869461
0.017357407017914994,0.583599078160556
0.017469386717356428,0.582453643267208
0.017581366070901328,0.580926396742745
0.017693352469725587,0.579590056033839
0.01780534011560686,0.578444621140492
0.017917321011527765,0.577108280431586
0.018029310149127564,0.575962845538239
0.0181412998578232,0.574626504829333
0.018253283421767574,0.573290164120428
0.01836527016539058,0.57214472922708
0.018477254849217473,0.570808388518175
0.018589237020211757,0.569662953624828
0.018701224482436718,0.568326612915922
0.01881321383662704,0.566990272207017
0.01892520337069359,0.565844837313669
0.019037185956993552,0.564699402420322
0.019149170907077906,0.563363061711416
0.019261163032681772,0.562026721002511
0.01937314672140167,0.560881286109163
0.019485129290258252,0.559735851215816
0.019597111243645715,0.558590416322468
0.019709097447093704,0.557444981429121
0.019821083643523196,0.556108640720215
0.019933073044411276,0.554963205826868
0.020045060881889065,0.55381777093352
0.020157038639032177,0.552481430224615
0.02026902240407169,0.551526901146825
0.020381008649426602,0.55019056043792
0.020492992800897114,0.549045125544572
0.020604980685459462,0.547899690651225
0.020716964929823,0.546754255757877
0.020828949395490404,0.545799726680088
0.020940936576995473,0.54465429178674
0.021052924309849286,0.543317951077835
0.021164909007352795,0.542363422000045
0.021276891066019044,0.54102708129114
0.021388872066596898,0.54007255221335
0.02150085646692812,0.538927117320003
0.02161284129458374,0.537972588242213
0.02172482394904085,0.536827153348866
0.02183680209348171,0.535681718455518
0.021948780283628566,0.534536283562171
0.022060764258395427,0.533390848668823
0.022172748925242347,0.532436319591034
0.02228473181741364,0.531290884697686
0.022396715575156323,0.530336355619896
0.022508702410251935,0.529190920726549
0.022620679157962953,0.528045485833201
0.022732660629026236,0.527090956755412
0.022844645821091025,0.525945521862064
0.02295663627594491,0.524800086968717
0.02306862121757669,0.523845557890927
0.023180606157484962,0.52270012299758
0.02329259617001167,0.52174559391979
0.02340458112024968,0.520791064842001
0.023516568795795445,0.519645629948653
0.02362855135282882,0.518691100870863
0.023740539115430837,0.517736571793074
0.023852529940318834,0.516591136899726
0.02396451708572056,0.515636607821937
0.02407649937448697,0.514682078744147
0.02418848185878586,0.5135366438508
0.02430046798399388,0.51258211477301
0.024412455984322956,0.51162758569522
0.024524444800475442,0.510482150801873
0.024636427602313216,0.509527621724083
0.0247484166109746,0.508573092646294
0.024860401070818994,0.507618563568504
0.024972388433935455,0.506664034490715
0.02508437613354353,0.505709505412925
0.025196358409676045,0.504754976335135
0.02530834674584015,0.503609541441788
0.025420327315361257,0.502845918179556
0.025532319609880005,0.501700483286209
0.025644304511169613,0.500745954208419
0.02575629113525979,0.49979142513063
0.025868282287217492,0.49883689605284
0.025980267334416718,0.49788236697505
0.02609225287018091,0.496927837897261
0.02620423946760997,0.495973308819471
0.026316216788373925,0.495018779741682
0.02642819693561782,0.494064250663892
0.026540181741138702,0.49330062740166
0.026652165062752253,0.492155192508313
0.02676414659226145,0.491391569246081
0.026876131835911976,0.490437040168292
0.02698810819524511,0.489482511090502
0.027100089182413356,0.488527982012712
0.027212075520225976,0.487764358750481
0.027324054504368478,0.486809829672691
0.027436038457891887,0.485855300594902
0.027548020954317076,0.484900771517112
0.027660007983226653,0.48413714825488
0.027771996739911486,0.482991713361533
0.027883976886887596,0.482228090099301
0.02799596356372258,0.481464466837069
0.028107946678799456,0.48050993775928
0.028219930425704365,0.47955540868149
0.02833191327783069,0.478791785419259
0.028443897389125783,0.477837256341469
0.0285558877437474,0.476882727263679
0.02866787309010943,0.476119104001448
0.028779859009367192,0.475164574923658
0.02889184822791968,0.474210045845869
0.02900383773898918,0.473446422583637
0.029115821812464193,0.472682799321405
0.029227812151691013,0.471728270243616
0.029339790058105497,0.470773741165826
0.02945177569014079,0.470010117903594
0.029563762647297875,0.469246494641363
0.02967575195261163,0.468291965563573
0.029787737137266013,0.467528342301341
0.02989972501638427,0.466573813223552
0.030011709755944138,0.46581018996132
0.030123693638315907,0.464855660883531
0.030235683367901944,0.464092037621299
0.030347671879032867,0.463328414359067
0.0304596624285971,0.462373885281278
0.030571644174132495,0.461610262019046
0.03068363006321273,0.460846638756814
0.030795620846274963,0.460083015494583
0.03090760928455427,0.459128486416793
0.031019591794238077,0.458364863154561
0.031131580615357146,0.45760123989233
0.031243571759213218,0.456837616630098
0.031355555618405195,0.455883087552308
0.03146754297630938,0.455119464290077
0.03157952927806573,0.454355841027845
0.03169151427883066,0.453592217765613
0.031803502894082625,0.452637688687824
0.031915489723564505,0.451874065425592
0.03202747614871915,0.45111044216336
0.03213946638138565,0.450346818901129
0.03225144736833829,0.449392289823339
0.03236342462307329,0.448628666561108
0.032475412346383514,0.448055949114434
0.032587396645226474,0.447292325852202
0.03269937997189498,0.446337796774412
0.03281136593940448,0.445574173512181
0.03292335447854744,0.444810550249949
0.033035332186248656,0.444046926987717
0.033147323616015356,0.443283303725486
0.03325930450245618,0.442519680463254
0.03337129038178166,0.441756057201022
0.033483272069678716,0.441183339754349
0.03359526493158871,0.440228810676559
0.03370725187395007,0.439465187414327
0.03381923859785141,0.438892469967654
0.03393122645514057,0.438128846705422
0.03404321383151088,0.43736522344319
0.034155201080758535,0.436601600180959
0.03426718203127166,0.435837976918727
0.03437917366217602,0.435265259472053
0.034491158801354116,0.434310730394264
0.03460314870911185,0.43373801294759
0.03471513495046297,0.432974389685358
0.03482712206617322,0.432210766423127
0.03493910476898732,0.431447143160895
0.03505109804659712,0.430683519898663
0.03516308610654606,0.430110802451989
0.03527507074502667,0.429347179189758
0.03538705436081124,0.428774461743084
0.03549903883652483,0.427819932665294
0.03561102781182757,0.427247215218621
0.03572301024219593,0.426483591956389
0.035834996575093925,0.425719968694157
0.03594698521952222,0.424956345431926
0.03605896995086,0.424192722169694
0.036170957831672235,0.42362000472302
0.036282951267678554,0.423047287276346
0.03639493342423683,0.422283664014115
0.03650691827655217,0.421520040751883
0.036618911023614586,0.420947323305209
0.0367308938041514,0.420183700042978
0.036842886750451,0.419610982596304
0.03695487134700137,0.418847359334072
0.03706686509077739,0.418083736071841
0.0371788452545706,0.417511018625167
0.037290837557084955,0.416938301178493
0.037402822106044065,0.416174677916261
0.03751480426107612,0.41541105465403
0.03762679197892571,0.414647431391798
0.03773877330803377,0.414074713945124
0.03785075819505779,0.413501996498451
0.037962741852902604,0.412738373236219
0.0380747291407868,0.411974749973987
0.03818671990143441,0.411592938342871
0.038298709152547294,0.41082931508064
0.03841070018638193,0.410065691818408
0.03852268804791137,0.409492974371734
0.03863467303881529,0.408920256925061
0.03874666211012823,0.408156633662829
0.038858645364074684,0.407583916216155
0.038970635752195504,0.406820292953923
0.03908262073510671,0.40624757550725
0.03919461091902299,0.405674858060576
0.0393065970849672,0.405102140613902
0.0394185916797577,0.40433851735167
0.039530579863243376,0.403574894089439
0.03964256288353263,0.403193082458323
0.03975454960434477,0.402429459196091
0.03986653853493338,0.401856741749418
0.039978528575892125,0.401284024302744
0.04009052177473815,0.400520401040512
0.040202505896970275,0.399947683593838
0.04031448892129286,0.399374966147165
0.040426471395665686,0.398802248700491
0.040538459182327125,0.398229531253817
0.0406504466538381,0.397465907991585
0.040762436519261924,0.396893190544912
0.040874421618398826,0.396320473098238
0.0409864084008732,0.395747755651564
0.04109839430575768,0.39517503820489
0.041210379838444555,0.394411414942659
0.04132236693720237,0.393838697495985
0.0414343523390337,0.393265980049311
0.04154633633947402,0.392884168418195
0.041658321114368846,0.392120545155964
0.04177030776310908,0.391356921893732
0.04188228890325241,0.390784204447058
0.041994275564502304,0.390211487000385
0.04210626691911512,0.389829675369269
0.04221825417863789,0.389256957922595
0.04233024136582142,0.388493334660363
0.042442225075256745,0.38792061721369
0.04255421284873784,0.387538805582574
0.04266619747135414,0.386775182320342
0.04277818431791758,0.386393370689226
0.04289017546884577,0.385820653242552
0.04300215936687335,0.385247935795879
0.043114143684325534,0.384484312533647
0.043226134292938756,0.384102500902531
0.04333811921103781,0.383529783455857
0.043450108702559276,0.382957066009184
0.04356208994383759,0.38238434856251
0.043674075163496195,0.381811631115836
0.043786062528030745,0.381238913669162
0.04389804611695747,0.380666196222489
0.044010030964433566,0.380284384591373
0.044122019008101754,0.379711667144699
0.04423400581996928,0.379138949698025
0.044345993324258925,0.378375326435794
0.04445797968950771,0.377993514804678
0.04456996740809305,0.377420797358004
0.04468195859356172,0.37684807991133
0.04479394369597545,0.376275362464657
0.0449059325803044,0.375702645017983
0.04501791512593567,0.375320833386867
0.04512990079857715,0.374748115940193
0.04524188984293287,0.374175398493519
0.04535387536313651,0.373793586862404
0.04546586379057149,0.373029963600172
0.04557785018610061,0.372648151969056
0.04568983744103272,0.372075434522382
0.04580182318674708,0.371693622891267
0.04591381038061115,0.371120905444593
0.04602579771113968,0.370739093813477
0.04613778259986956,0.369975470551245
0.04624976974632544,0.369593658920129
0.0463617557933651,0.369211847289014
0.0464737423770859,0.36863912984234
0.046585731830650734,0.368066412395666
0.046697718949097355,0.36768460076455
0.04680970974275478,0.367111883317876
0.04692169659537726,0.366539165871203
0.04703368464110502,0.366157354240087
0.04714567006181403,0.365584636793413
0.04725765854751185,0.365202825162297
0.04736964940274835,0.364630107715624
0.04748163756791057,0.36405739026895
0.04759362323428695,0.363484672822276
0.04770561307821852,0.36310286119116
0.04781760042748495,0.362721049560044
0.047929584894279786,0.362339237928929
0.04804157150249533,0.361766520482255
0.04815355998173354,0.361193803035581
0.04826554620284762,0.360811991404465
0.04837752787542815,0.360239273957791
0.04848951804613344,0.359857462326676
0.048601504973495246,0.35947565069556
0.048713489512342,0.358902933248886
0.04882547595726128,0.35852112161777
0.04893745973421626,0.357948404171096
0.04904944492123153,0.357375686724423
0.04916143230418668,0.356993875093307
0.049273417923862306,0.356612063462191
0.049385406097756324,0.356230251831075
0.04949739244406148,0.355657534384401
0.04960937018175138,0.355275722753286
0.04972135975270553,0.354703005306612
0.04983334566202369,0.354321193675496
0.0499453370735391,0.353748476228822
0.05005732061640622,0.353366664597706
0.050169305680023424,0.352984852966591
0.0502812994612597,0.352603041335475
0.05039328344899807,0.352030323888801
0.05050526297061775,0.351648512257685
0.05061724953988167,0.351075794811011
0.050729238128776166,0.350693983179896
0.05084122532812829,0.35031217154878
0.050953210030353024,0.349930359917664
0.05106519593374159,0.349548548286548
0.05117717819498968,0.349166736655432
0.05128916434545938,0.348594019208758
0.05140114703408949,0.348212207577643
0.05151313354871245,0.347830395946527
0.051625112696990993,0.347448584315411
0.051737102866680096,0.347066772684295
0.051849087959789375,0.346684961053179
0.05196107422248353,0.346303149422063
0.052073056307782584,0.34573043197539
0.05218504823474823,0.345348620344274
0.05229703064351654,0.344966808713158
0.05240901753852367,0.344394091266484
0.05252100462643561,0.344012279635368
0.05263298801047811,0.343630468004253
0.052744977452683806,0.343248656373137
0.0528569631451099,0.342866844742021
0.052968947511299325,0.342485033110905
0.053080931946095644,0.342103221479789
0.05319291847821084,0.341721409848673
0.053304906324001755,0.341339598217557
0.05341689495686652,0.340957786586442
0.05352888488345042,0.340575974955326
0.053640871703016346,0.34019416332421
0.05375285202509528,0.339812351693094
0.05386483268883391,0.339430540061978
0.053976813724061046,0.339048728430862
0.05408880002796401,0.338666916799747
0.05420078807978801,0.338285105168631
0.05431277213869279,0.337903293537515
0.05442474600299174,0.337521481906399
0.05453673174979767,0.337139670275283
0.05464871429176077,0.336757858644167
0.054760690438814486,0.336376047013052
0.054872675454654796,0.335994235381936
0.05498465896301252,0.33561242375082
0.05509664419262983,0.335230612119704
0.05520863086108874,0.335039706304146
0.05532061025324975,0.33465789467303
0.05543259789746702,0.334276083041915
0.055544582563357925,0.333894271410799
0.05565657260108903,0.333512459779683
0.05576855674268166,0.333130648148567
0.055880543346435885,0.332748836517451
0.055992523632612756,0.332557930701893
0.05610451126730953,0.332176119070777
0.056216501939429175,0.331794307439662
0.05632849051134903,0.331412495808546
0.056440476799522354,0.33103068417743
0.05655245977573309,0.330648872546314
0.056664442099506496,0.330267060915198
0.05677642649553294,0.329885249284082
0.05688841497690489,0.329694343468524
0.05700039468430751,0.329312531837409
0.05711238385106998,0.329121626021851
0.05722436850234802,0.328739814390735
0.05733635224816269,0.328358002759619
0.05744833573650876,0.327976191128503
0.05756031629216829,0.327785285312945
0.057672298238299,0.327403473681829
0.05778427729698321,0.327021662050714
0.057896258321677996,0.326830756235156
0.05800824342235078,0.32644894460404
0.05812022445618914,0.326067132972924
